Time,PPG
1.00002133333333,5.19686
1.00082133333333,5.12765
1.00162133333333,5.05893
1.00242133333333,4.9907
1.00322133333333,4.92295
1.00402133333333,4.85569
1.00482133333333,4.78891
1.00562133333333,4.72261
1.00642133333333,4.65677
1.00722133333333,4.59141
1.00802133333333,4.5265
1.00882133333333,4.46206
1.00962133333333,4.39806
1.01042133333333,4.33452
1.01122133333333,4.27141
1.01202133333333,4.20875
1.01282133333333,4.14652
1.01362133333333,4.08472
1.01442133333333,4.02335
1.01522133333333,3.9624
1.01602133333333,3.90187
1.01682133333333,3.84177
1.01762133333333,3.78209
1.01842133333333,3.72282
1.01922133333333,3.66396
1.02002133333333,3.60553
1.02082133333333,3.5475
1.02162133333333,3.48988
1.02242133333333,3.43267
1.02322133333333,3.37586
1.02402133333333,3.31946
1.02482133333333,3.26345
1.02562133333333,3.20785
1.02642133333333,3.15264
1.02722133333333,3.09783
1.02802133333333,3.0434
1.02882133333333,2.98937
1.02962133333333,2.93572
1.03042133333333,2.88245
1.03122133333333,2.82957
1.03202133333333,2.77706
1.03282133333333,2.72492
1.03362133333333,2.67315
1.03442133333333,2.62174
1.03522133333333,2.57069
1.03602133333333,2.51999
1.03682133333333,2.46964
1.03762133333333,2.41964
1.03842133333333,2.36996
1.03922133333333,2.32062
1.04002133333333,2.27161
1.04082133333333,2.22291
1.04162133333333,2.17453
1.04242133333333,2.12645
1.04322133333333,2.07868
1.04402133333333,2.0312
1.04482133333333,1.98401
1.04562133333333,1.93711
1.04642133333333,1.89049
1.04722133333333,1.84414
1.04802133333333,1.79807
1.04882133333333,1.75227
1.04962133333333,1.70674
1.05042133333333,1.66147
1.05122133333333,1.61646
1.05202133333333,1.57171
1.05282133333333,1.52722
1.05362133333333,1.48298
1.05442133333333,1.43898
1.05522133333333,1.39524
1.05602133333333,1.35174
1.05682133333333,1.30848
1.05762133333333,1.26546
1.05842133333333,1.22268
1.05922133333333,1.18013
1.06002133333333,1.13781
1.06082133333333,1.09572
1.06162133333333,1.05385
1.06242133333333,1.01221
1.06322133333333,0.97078
1.06402133333333,0.92956
1.06482133333333,0.88856
1.06562133333333,0.84777
1.06642133333333,0.80718
1.06722133333333,0.7668
1.06802133333333,0.72662
1.06882133333333,0.68665
1.06962133333333,0.64689
1.07042133333333,0.60733
1.07122133333333,0.56798
1.07202133333333,0.52883
1.07282133333333,0.4899
1.07362133333333,0.45117
1.07442133333333,0.41265
1.07522133333333,0.37435
1.07602133333333,0.33626
1.07682133333333,0.29838
1.07762133333333,0.26072
1.07842133333333,0.22328
1.07922133333333,0.18606
1.08002133333333,0.14906
1.08082133333333,0.11229
1.08162133333333,0.07575
1.08242133333333,0.03945
1.08322133333333,0.00338
1.08402133333333,-0.03245
1.08482133333333,-0.06803
1.08562133333333,-0.10336
1.08642133333333,-0.13843
1.08722133333333,-0.17324
1.08802133333333,-0.20777
1.08882133333333,-0.24203
1.08962133333333,-0.276
1.09042133333333,-0.30967
1.09122133333333,-0.34304
1.09202133333333,-0.3761
1.09282133333333,-0.40883
1.09362133333333,-0.44122
1.09442133333333,-0.47326
1.09522133333333,-0.50493
1.09602133333333,-0.53623
1.09682133333333,-0.56713
1.09762133333333,-0.59762
1.09842133333333,-0.62768
1.09922133333333,-0.6573
1.10002133333333,-0.68645
1.10082133333333,-0.71511
1.10162133333333,-0.74327
1.10242133333333,-0.77091
1.10322133333333,-0.79799
1.10402133333333,-0.82451
1.10482133333333,-0.85044
1.10562133333333,-0.87575
1.10642133333333,-0.90042
1.10722133333333,-0.92443
1.10802133333333,-0.94775
1.10882133333333,-0.97035
1.10962133333333,-0.9922
1.11042133333333,-1.0133
1.11122133333333,-1.03359
1.11202133333333,-1.05307
1.11282133333333,-1.0717
1.11362133333333,-1.08946
1.11442133333333,-1.10632
1.11522133333333,-1.12226
1.11602133333333,-1.13725
1.11682133333333,-1.15127
1.11762133333333,-1.16428
1.11842133333333,-1.17627
1.11922133333333,-1.18721
1.12002133333333,-1.19707
1.12082133333333,-1.20583
1.12162133333333,-1.21347
1.12242133333333,-1.21995
1.12322133333333,-1.22527
1.12402133333333,-1.22939
1.12482133333333,-1.2323
1.12562133333333,-1.23397
1.12642133333333,-1.23439
1.12722133333333,-1.23354
1.12802133333333,-1.23139
1.12882133333333,-1.22794
1.12962133333333,-1.22317
1.13042133333333,-1.21707
1.13122133333333,-1.20962
1.13202133333333,-1.2008
1.13282133333333,-1.19062
1.13362133333333,-1.17906
1.13442133333333,-1.16611
1.13522133333333,-1.15177
1.13602133333333,-1.13603
1.13682133333333,-1.11889
1.13762133333333,-1.10035
1.13842133333333,-1.08041
1.13922133333333,-1.05906
1.14002133333333,-1.03632
1.14082133333333,-1.01218
1.14162133333333,-0.98666
1.14242133333333,-0.95976
1.14322133333333,-0.93148
1.14402133333333,-0.90185
1.14482133333333,-0.87087
1.14562133333333,-0.83856
1.14642133333333,-0.80494
1.14722133333333,-0.77001
1.14802133333333,-0.7338
1.14882133333333,-0.69633
1.14962133333333,-0.65762
1.15042133333333,-0.61769
1.15122133333333,-0.57656
1.15202133333333,-0.53427
1.15282133333333,-0.49084
1.15362133333333,-0.4463
1.15442133333333,-0.40067
1.15522133333333,-0.35401
1.15602133333333,-0.30632
1.15682133333333,-0.25767
1.15762133333333,-0.20807
1.15842133333333,-0.15757
1.15922133333333,-0.1062
1.16002133333333,-0.05402
1.16082133333333,-0.00105
1.16162133333333,0.05264
1.16242133333333,0.10703
1.16322133333333,0.16207
1.16402133333333,0.2177
1.16482133333333,0.27388
1.16562133333333,0.33057
1.16642133333333,0.38772
1.16722133333333,0.44527
1.16802133333333,0.50319
1.16882133333333,0.56141
1.16962133333333,0.6199
1.17042133333333,0.67859
1.17122133333333,0.73745
1.17202133333333,0.79642
1.17282133333333,0.85546
1.17362133333333,0.91451
1.17442133333333,0.97353
1.17522133333333,1.03247
1.17602133333333,1.09129
1.17682133333333,1.14993
1.17762133333333,1.20835
1.17842133333333,1.26651
1.17922133333333,1.32436
1.18002133333333,1.38186
1.18082133333333,1.43898
1.18162133333333,1.49566
1.18242133333333,1.55188
1.18322133333333,1.60759
1.18402133333333,1.66275
1.18482133333333,1.71734
1.18562133333333,1.77133
1.18642133333333,1.82467
1.18722133333333,1.87733
1.18802133333333,1.9293
1.18882133333333,1.98053
1.18962133333333,2.03101
1.19042133333333,2.0807
1.19122133333333,2.12957
1.19202133333333,2.17762
1.19282133333333,2.22481
1.19362133333333,2.27113
1.19442133333333,2.31655
1.19522133333333,2.36106
1.19602133333333,2.40465
1.19682133333333,2.44729
1.19762133333333,2.48898
1.19842133333333,2.5297
1.19922133333333,2.56944
1.20002133333333,2.60819
1.20082133333333,2.64594
1.20162133333333,2.68267
1.20242133333333,2.71839
1.20322133333333,2.75309
1.20402133333333,2.78676
1.20482133333333,2.8194
1.20562133333333,2.85101
1.20642133333333,2.88157
1.20722133333333,2.9111
1.20802133333333,2.93958
1.20882133333333,2.96702
1.20962133333333,2.99341
1.21042133333333,3.01876
1.21122133333333,3.04307
1.21202133333333,3.06634
1.21282133333333,3.08856
1.21362133333333,3.10976
1.21442133333333,3.12992
1.21522133333333,3.14905
1.21602133333333,3.16717
1.21682133333333,3.18427
1.21762133333333,3.20036
1.21842133333333,3.21545
1.21922133333333,3.22955
1.22002133333333,3.24266
1.22082133333333,3.2548
1.22162133333333,3.26597
1.22242133333333,3.27618
1.22322133333333,3.28545
1.22402133333333,3.29378
1.22482133333333,3.30119
1.22562133333333,3.30768
1.22642133333333,3.31328
1.22722133333333,3.31798
1.22802133333333,3.32182
1.22882133333333,3.32479
1.22962133333333,3.32691
1.23042133333333,3.3282
1.23122133333333,3.32867
1.23202133333333,3.32834
1.23282133333333,3.32721
1.23362133333333,3.32532
1.23442133333333,3.32267
1.23522133333333,3.31929
1.23602133333333,3.31519
1.23682133333333,3.31039
1.23762133333333,3.30491
1.23842133333333,3.29876
1.23922133333333,3.29197
1.24002133333333,3.28456
1.24082133333333,3.27653
1.24162133333333,3.26791
1.24242133333333,3.2587
1.24322133333333,3.24894
1.24402133333333,3.23862
1.24482133333333,3.22777
1.24562133333333,3.2164
1.24642133333333,3.20453
1.24722133333333,3.19216
1.24802133333333,3.17933
1.24882133333333,3.16603
1.24962133333333,3.15229
1.25042133333333,3.13812
1.25122133333333,3.12353
1.25202133333333,3.10853
1.25282133333333,3.09315
1.25362133333333,3.0774
1.25442133333333,3.06128
1.25522133333333,3.04481
1.25602133333333,3.02801
1.25682133333333,3.01088
1.25762133333333,2.99344
1.25842133333333,2.9757
1.25922133333333,2.95768
1.26002133333333,2.93939
1.26082133333333,2.92083
1.26162133333333,2.90204
1.26242133333333,2.883
1.26322133333333,2.86375
1.26402133333333,2.84429
1.26482133333333,2.82464
1.26562133333333,2.80481
1.26642133333333,2.78481
1.26722133333333,2.76466
1.26802133333333,2.74436
1.26882133333333,2.72393
1.26962133333333,2.70338
1.27042133333333,2.68273
1.27122133333333,2.66199
1.27202133333333,2.64116
1.27282133333333,2.62026
1.27362133333333,2.5993
1.27442133333333,2.57829
1.27522133333333,2.55723
1.27602133333333,2.53615
1.27682133333333,2.51504
1.27762133333333,2.49393
1.27842133333333,2.47281
1.27922133333333,2.45169
1.28002133333333,2.43059
1.28082133333333,2.4095
1.28162133333333,2.38844
1.28242133333333,2.36742
1.28322133333333,2.34643
1.28402133333333,2.32548
1.28482133333333,2.30458
1.28562133333333,2.28373
1.28642133333333,2.26294
1.28722133333333,2.24222
1.28802133333333,2.22156
1.28882133333333,2.20096
1.28962133333333,2.18045
1.29042133333333,2.16
1.29122133333333,2.13964
1.29202133333333,2.11936
1.29282133333333,2.09916
1.29362133333333,2.07904
1.29442133333333,2.05901
1.29522133333333,2.03906
1.29602133333333,2.01919
1.29682133333333,1.99942
1.29762133333333,1.97972
1.29842133333333,1.96011
1.29922133333333,1.94058
1.30002133333333,1.92113
1.30082133333333,1.90176
1.30162133333333,1.88247
1.30242133333333,1.86325
1.30322133333333,1.84411
1.30402133333333,1.82503
1.30482133333333,1.80602
1.30562133333333,1.78708
1.30642133333333,1.76819
1.30722133333333,1.74936
1.30802133333333,1.73058
1.30882133333333,1.71185
1.30962133333333,1.69316
1.31042133333333,1.67452
1.31122133333333,1.65591
1.31202133333333,1.63733
1.31282133333333,1.61878
1.31362133333333,1.60026
1.31442133333333,1.58175
1.31522133333333,1.56327
1.31602133333333,1.5448
1.31682133333333,1.52635
1.31762133333333,1.5079
1.31842133333333,1.48945
1.31922133333333,1.471
1.32002133333333,1.45255
1.32082133333333,1.43409
1.32162133333333,1.41562
1.32242133333333,1.39712
1.32322133333333,1.37861
1.32402133333333,1.36006
1.32482133333333,1.34149
1.32562133333333,1.32289
1.32642133333333,1.30425
1.32722133333333,1.28557
1.32802133333333,1.26685
1.32882133333333,1.24809
1.32962133333333,1.22929
1.33042133333333,1.21045
1.33122133333333,1.19156
1.33202133333333,1.17264
1.33282133333333,1.15367
1.33362133333333,1.13466
1.33442133333333,1.11561
1.33522133333333,1.09652
1.33602133333333,1.07738
1.33682133333333,1.05821
1.33762133333333,1.039
1.33842133333333,1.01974
1.33922133333333,1.00045
1.34002133333333,0.98113
1.34082133333333,0.96177
1.34162133333333,0.94237
1.34242133333333,0.92295
1.34322133333333,0.90349
1.34402133333333,0.88401
1.34482133333333,0.8645
1.34562133333333,0.84497
1.34642133333333,0.82542
1.34722133333333,0.80585
1.34802133333333,0.78627
1.34882133333333,0.76669
1.34962133333333,0.74711
1.35042133333333,0.72754
1.35122133333333,0.70798
1.35202133333333,0.68844
1.35282133333333,0.66893
1.35362133333333,0.64945
1.35442133333333,0.63002
1.35522133333333,0.61064
1.35602133333333,0.59131
1.35682133333333,0.57205
1.35762133333333,0.55287
1.35842133333333,0.53376
1.35922133333333,0.51475
1.36002133333333,0.49583
1.36082133333333,0.47702
1.36162133333333,0.45832
1.36242133333333,0.43974
1.36322133333333,0.4213
1.36402133333333,0.40299
1.36482133333333,0.38484
1.36562133333333,0.36684
1.36642133333333,0.349
1.36722133333333,0.33134
1.36802133333333,0.31386
1.36882133333333,0.29657
1.36962133333333,0.27948
1.37042133333333,0.2626
1.37122133333333,0.24594
1.37202133333333,0.2295
1.37282133333333,0.21331
1.37362133333333,0.19736
1.37442133333333,0.18166
1.37522133333333,0.16623
1.37602133333333,0.15107
1.37682133333333,0.13619
1.37762133333333,0.12159
1.37842133333333,0.10729
1.37922133333333,0.09328
1.38002133333333,0.07957
1.38082133333333,0.06617
1.38162133333333,0.05308
1.38242133333333,0.04031
1.38322133333333,0.02786
1.38402133333333,0.01573
1.38482133333333,0.00392
1.38562133333333,-0.00756
1.38642133333333,-0.01871
1.38722133333333,-0.02954
1.38802133333333,-0.04003
1.38882133333333,-0.0502
1.38962133333333,-0.06004
1.39042133333333,-0.06955
1.39122133333333,-0.07873
1.39202133333333,-0.08758
1.39282133333333,-0.09612
1.39362133333333,-0.10432
1.39442133333333,-0.11221
1.39522133333333,-0.11977
1.39602133333333,-0.12701
1.39682133333333,-0.13394
1.39762133333333,-0.14055
1.39842133333333,-0.14684
1.39922133333333,-0.15282
1.40002133333333,-0.15848
1.40082133333333,-0.16384
1.40162133333333,-0.16889
1.40242133333333,-0.17363
1.40322133333333,-0.17808
1.40402133333333,-0.18222
1.40482133333333,-0.18607
1.40562133333333,-0.18963
1.40642133333333,-0.1929
1.40722133333333,-0.19589
1.40802133333333,-0.19858
1.40882133333333,-0.201
1.40962133333333,-0.20314
1.41042133333333,-0.205
1.41122133333333,-0.2066
1.41202133333333,-0.20792
1.41282133333333,-0.20897
1.41362133333333,-0.20976
1.41442133333333,-0.21029
1.41522133333333,-0.21056
1.41602133333333,-0.21057
1.41682133333333,-0.21033
1.41762133333333,-0.20985
1.41842133333333,-0.20912
1.41922133333333,-0.20815
1.42002133333333,-0.20694
1.42082133333333,-0.2055
1.42162133333333,-0.20382
1.42242133333333,-0.20192
1.42322133333333,-0.19979
1.42402133333333,-0.19743
1.42482133333333,-0.19486
1.42562133333333,-0.19207
1.42642133333333,-0.18907
1.42722133333333,-0.18586
1.42802133333333,-0.18245
1.42882133333333,-0.17884
1.42962133333333,-0.17504
1.43042133333333,-0.17104
1.43122133333333,-0.16686
1.43202133333333,-0.1625
1.43282133333333,-0.15796
1.43362133333333,-0.15324
1.43442133333333,-0.14836
1.43522133333333,-0.1433
1.43602133333333,-0.13809
1.43682133333333,-0.13272
1.43762133333333,-0.1272
1.43842133333333,-0.12152
1.43922133333333,-0.11571
1.44002133333333,-0.10976
1.44082133333333,-0.10367
1.44162133333333,-0.09745
1.44242133333333,-0.09111
1.44322133333333,-0.08465
1.44402133333333,-0.07807
1.44482133333333,-0.07139
1.44562133333333,-0.0646
1.44642133333333,-0.05773
1.44722133333333,-0.05076
1.44802133333333,-0.04371
1.44882133333333,-0.0366
1.44962133333333,-0.02941
1.45042133333333,-0.02218
1.45122133333333,-0.01489
1.45202133333333,-0.00756
1.45282133333333,-0.0002
1.45362133333333,0.00718
1.45442133333333,0.01458
1.45522133333333,0.02199
1.45602133333333,0.0294
1.45682133333333,0.03681
1.45762133333333,0.04419
1.45842133333333,0.05156
1.45922133333333,0.0589
1.46002133333333,0.06621
1.46082133333333,0.07348
1.46162133333333,0.08069
1.46242133333333,0.08786
1.46322133333333,0.09496
1.46402133333333,0.10199
1.46482133333333,0.10894
1.46562133333333,0.11582
1.46642133333333,0.1226
1.46722133333333,0.12929
1.46802133333333,0.13587
1.46882133333333,0.14233
1.46962133333333,0.14868
1.47042133333333,0.1549
1.47122133333333,0.16099
1.47202133333333,0.16693
1.47282133333333,0.17272
1.47362133333333,0.17835
1.47442133333333,0.18382
1.47522133333333,0.18911
1.47602133333333,0.19422
1.47682133333333,0.19915
1.47762133333333,0.20389
1.47842133333333,0.20842
1.47922133333333,0.21275
1.48002133333333,0.21688
1.48082133333333,0.22078
1.48162133333333,0.22447
1.48242133333333,0.22793
1.48322133333333,0.23117
1.48402133333333,0.23418
1.48482133333333,0.23696
1.48562133333333,0.2395
1.48642133333333,0.24181
1.48722133333333,0.24388
1.48802133333333,0.24572
1.48882133333333,0.24731
1.48962133333333,0.24867
1.49042133333333,0.24979
1.49122133333333,0.25068
1.49202133333333,0.25132
1.49282133333333,0.25173
1.49362133333333,0.25191
1.49442133333333,0.25186
1.49522133333333,0.25157
1.49602133333333,0.25106
1.49682133333333,0.25032
1.49762133333333,0.24937
1.49842133333333,0.24819
1.49922133333333,0.2468
1.50002133333333,0.24521
1.50082133333333,0.2434
1.50162133333333,0.2414
1.50242133333333,0.2392
1.50322133333333,0.23681
1.50402133333333,0.23423
1.50482133333333,0.23147
1.50562133333333,0.22854
1.50642133333333,0.22545
1.50722133333333,0.22219
1.50802133333333,0.21877
1.50882133333333,0.2152
1.50962133333333,0.21148
1.51042133333333,0.20762
1.51122133333333,0.20361
1.51202133333333,0.19945
1.51282133333333,0.19515
1.51362133333333,0.19071
1.51442133333333,0.18612
1.51522133333333,0.18139
1.51602133333333,0.17652
1.51682133333333,0.1715
1.51762133333333,0.16633
1.51842133333333,0.16102
1.51922133333333,0.15556
1.52002133333333,0.14996
1.52082133333333,0.1442
1.52162133333333,0.13829
1.52242133333333,0.13224
1.52322133333333,0.12602
1.52402133333333,0.11966
1.52482133333333,0.11314
1.52562133333333,0.10646
1.52642133333333,0.09963
1.52722133333333,0.09265
1.52802133333333,0.0855
1.52882133333333,0.07821
1.52962133333333,0.07076
1.53042133333333,0.06316
1.53122133333333,0.05541
1.53202133333333,0.04751
1.53282133333333,0.03946
1.53362133333333,0.03126
1.53442133333333,0.02292
1.53522133333333,0.01443
1.53602133333333,0.0058
1.53682133333333,-0.00298
1.53762133333333,-0.0119
1.53842133333333,-0.02097
1.53922133333333,-0.03018
1.54002133333333,-0.03953
1.54082133333333,-0.04902
1.54162133333333,-0.05865
1.54242133333333,-0.06842
1.54322133333333,-0.07832
1.54402133333333,-0.08836
1.54482133333333,-0.09853
1.54562133333333,-0.10883
1.54642133333333,-0.11926
1.54722133333333,-0.12982
1.54802133333333,-0.1405
1.54882133333333,-0.15131
1.54962133333333,-0.16223
1.55042133333333,-0.17327
1.55122133333333,-0.18441
1.55202133333333,-0.19566
1.55282133333333,-0.20701
1.55362133333333,-0.21846
1.55442133333333,-0.23
1.55522133333333,-0.24162
1.55602133333333,-0.25332
1.55682133333333,-0.2651
1.55762133333333,-0.27695
1.55842133333333,-0.28886
1.55922133333333,-0.30083
1.56002133333333,-0.31286
1.56082133333333,-0.32494
1.56162133333333,-0.33708
1.56242133333333,-0.34927
1.56322133333333,-0.3615
1.56402133333333,-0.37378
1.56482133333333,-0.3861
1.56562133333333,-0.39847
1.56642133333333,-0.41086
1.56722133333333,-0.4233
1.56802133333333,-0.43576
1.56882133333333,-0.44825
1.56962133333333,-0.46076
1.57042133333333,-0.47329
1.57122133333333,-0.48585
1.57202133333333,-0.49841
1.57282133333333,-0.51099
1.57362133333333,-0.52358
1.57442133333333,-0.53617
1.57522133333333,-0.54876
1.57602133333333,-0.56135
1.57682133333333,-0.57393
1.57762133333333,-0.58651
1.57842133333333,-0.59907
1.57922133333333,-0.6116
1.58002133333333,-0.62412
1.58082133333333,-0.63661
1.58162133333333,-0.64907
1.58242133333333,-0.66149
1.58322133333333,-0.67388
1.58402133333333,-0.68622
1.58482133333333,-0.69852
1.58562133333333,-0.71078
1.58642133333333,-0.72299
1.58722133333333,-0.73515
1.58802133333333,-0.74726
1.58882133333333,-0.75933
1.58962133333333,-0.77134
1.59042133333333,-0.78331
1.59122133333333,-0.79522
1.59202133333333,-0.80709
1.59282133333333,-0.81892
1.59362133333333,-0.83071
1.59442133333333,-0.84245
1.59522133333333,-0.85417
1.59602133333333,-0.86585
1.59682133333333,-0.87751
1.59762133333333,-0.88915
1.59842133333333,-0.90077
1.59922133333333,-0.91237
1.60002133333333,-0.92397
1.60082133333333,-0.93556
1.60162133333333,-0.94715
1.60242133333333,-0.95874
1.60322133333333,-0.97034
1.60402133333333,-0.98194
1.60482133333333,-0.99354
1.60562133333333,-1.00515
1.60642133333333,-1.01677
1.60722133333333,-1.02839
1.60802133333333,-1.04003
1.60882133333333,-1.05167
1.60962133333333,-1.06333
1.61042133333333,-1.075
1.61122133333333,-1.08668
1.61202133333333,-1.09838
1.61282133333333,-1.11008
1.61362133333333,-1.1218
1.61442133333333,-1.13354
1.61522133333333,-1.1453
1.61602133333333,-1.15708
1.61682133333333,-1.16888
1.61762133333333,-1.1807
1.61842133333333,-1.19255
1.61922133333333,-1.20444
1.62002133333333,-1.21635
1.62082133333333,-1.22831
1.62162133333333,-1.24029
1.62242133333333,-1.25232
1.62322133333333,-1.26439
1.62402133333333,-1.2765
1.62482133333333,-1.28865
1.62562133333333,-1.30084
1.62642133333333,-1.31308
1.62722133333333,-1.32537
1.62802133333333,-1.3377
1.62882133333333,-1.35008
1.62962133333333,-1.3625
1.63042133333333,-1.37498
1.63122133333333,-1.3875
1.63202133333333,-1.40006
1.63282133333333,-1.41268
1.63362133333333,-1.42534
1.63442133333333,-1.43804
1.63522133333333,-1.45079
1.63602133333333,-1.46358
1.63682133333333,-1.47642
1.63762133333333,-1.4893
1.63842133333333,-1.50223
1.63922133333333,-1.51519
1.64002133333333,-1.52819
1.64082133333333,-1.54123
1.64162133333333,-1.55431
1.64242133333333,-1.56742
1.64322133333333,-1.58057
1.64402133333333,-1.59376
1.64482133333333,-1.60697
1.64562133333333,-1.62022
1.64642133333333,-1.63349
1.64722133333333,-1.6468
1.64802133333333,-1.66013
1.64882133333333,-1.67348
1.64962133333333,-1.68686
1.65042133333333,-1.70026
1.65122133333333,-1.71368
1.65202133333333,-1.72711
1.65282133333333,-1.74057
1.65362133333333,-1.75404
1.65442133333333,-1.76752
1.65522133333333,-1.78102
1.65602133333333,-1.79454
1.65682133333333,-1.80806
1.65762133333333,-1.8216
1.65842133333333,-1.83515
1.65922133333333,-1.84871
1.66002133333333,-1.86228
1.66082133333333,-1.87585
1.66162133333333,-1.88943
1.66242133333333,-1.90301
1.66322133333333,-1.91659
1.66402133333333,-1.93017
1.66482133333333,-1.94375
1.66562133333333,-1.95731
1.66642133333333,-1.97086
1.66722133333333,-1.98439
1.66802133333333,-1.99789
1.66882133333333,-2.01137
1.66962133333333,-2.02482
1.67042133333333,-2.03824
1.67122133333333,-2.05162
1.67202133333333,-2.06497
1.67282133333333,-2.07827
1.67362133333333,-2.09152
1.67442133333333,-2.10472
1.67522133333333,-2.11787
1.67602133333333,-2.13096
1.67682133333333,-2.14398
1.67762133333333,-2.15693
1.67842133333333,-2.16981
1.67922133333333,-2.1826
1.68002133333333,-2.1953
1.68082133333333,-2.2079
1.68162133333333,-2.2204
1.68242133333333,-2.23278
1.68322133333333,-2.24504
1.68402133333333,-2.25717
1.68482133333333,-2.26916
1.68562133333333,-2.28099
1.68642133333333,-2.29267
1.68722133333333,-2.30417
1.68802133333333,-2.31549
1.68882133333333,-2.32661
1.68962133333333,-2.33752
1.69042133333333,-2.34821
1.69122133333333,-2.35867
1.69202133333333,-2.36889
1.69282133333333,-2.37884
1.69362133333333,-2.38852
1.69442133333333,-2.3979
1.69522133333333,-2.40698
1.69602133333333,-2.41574
1.69682133333333,-2.42416
1.69762133333333,-2.43222
1.69842133333333,-2.43991
1.69922133333333,-2.44721
1.70002133333333,-2.4541
1.70082133333333,-2.46055
1.70162133333333,-2.46654
1.70242133333333,-2.47207
1.70322133333333,-2.47709
1.70402133333333,-2.4816
1.70482133333333,-2.48556
1.70562133333333,-2.48896
1.70642133333333,-2.49178
1.70722133333333,-2.49398
1.70802133333333,-2.49556
1.70882133333333,-2.49648
1.70962133333333,-2.49673
1.71042133333333,-2.49627
1.71122133333333,-2.49509
1.71202133333333,-2.49316
1.71282133333333,-2.49046
1.71362133333333,-2.48696
1.71442133333333,-2.48263
1.71522133333333,-2.47746
1.71602133333333,-2.47142
1.71682133333333,-2.46448
1.71762133333333,-2.45663
1.71842133333333,-2.44783
1.71922133333333,-2.43808
1.72002133333333,-2.42733
1.72082133333333,-2.41558
1.72162133333333,-2.40281
1.72242133333333,-2.38898
1.72322133333333,-2.37408
1.72402133333333,-2.3581
1.72482133333333,-2.341
1.72562133333333,-2.32278
1.72642133333333,-2.30342
1.72722133333333,-2.2829
1.72802133333333,-2.26121
1.72882133333333,-2.23832
1.72962133333333,-2.21424
1.73042133333333,-2.18896
1.73122133333333,-2.16245
1.73202133333333,-2.13472
1.73282133333333,-2.10576
1.73362133333333,-2.07558
1.73442133333333,-2.04415
1.73522133333333,-2.0115
1.73602133333333,-1.97762
1.73682133333333,-1.94251
1.73762133333333,-1.90618
1.73842133333333,-1.86864
1.73922133333333,-1.82989
1.74002133333333,-1.78996
1.74082133333333,-1.74884
1.74162133333333,-1.70657
1.74242133333333,-1.66315
1.74322133333333,-1.61861
1.74402133333333,-1.57296
1.74482133333333,-1.52623
1.74562133333333,-1.47845
1.74642133333333,-1.42963
1.74722133333333,-1.37982
1.74802133333333,-1.32904
1.74882133333333,-1.27732
1.74962133333333,-1.22469
1.75042133333333,-1.17119
1.75122133333333,-1.11686
1.75202133333333,-1.06172
1.75282133333333,-1.00583
1.75362133333333,-0.94921
1.75442133333333,-0.89191
1.75522133333333,-0.83396
1.75602133333333,-0.77541
1.75682133333333,-0.7163
1.75762133333333,-0.65666
1.75842133333333,-0.59655
1.75922133333333,-0.536
1.76002133333333,-0.47506
1.76082133333333,-0.41377
1.76162133333333,-0.35217
1.76242133333333,-0.29032
1.76322133333333,-0.22825
1.76402133333333,-0.16601
1.76482133333333,-0.10364
1.76562133333333,-0.04118
1.76642133333333,0.02133
1.76722133333333,0.08383
1.76802133333333,0.14629
1.76882133333333,0.20866
1.76962133333333,0.2709
1.77042133333333,0.33297
1.77122133333333,0.39483
1.77202133333333,0.45643
1.77282133333333,0.51774
1.77362133333333,0.57872
1.77442133333333,0.63932
1.77522133333333,0.69952
1.77602133333333,0.75927
1.77682133333333,0.81854
1.77762133333333,0.87729
1.77842133333333,0.9355
1.77922133333333,0.99312
1.78002133333333,1.05013
1.78082133333333,1.10649
1.78162133333333,1.16218
1.78242133333333,1.21717
1.78322133333333,1.27142
1.78402133333333,1.32492
1.78482133333333,1.37763
1.78562133333333,1.42954
1.78642133333333,1.48062
1.78722133333333,1.53085
1.78802133333333,1.58021
1.78882133333333,1.62868
1.78962133333333,1.67625
1.79042133333333,1.72289
1.79122133333333,1.7686
1.79202133333333,1.81336
1.79282133333333,1.85715
1.79362133333333,1.89998
1.79442133333333,1.94181
1.79522133333333,1.98266
1.79602133333333,2.0225
1.79682133333333,2.06133
1.79762133333333,2.09914
1.79842133333333,2.13594
1.79922133333333,2.17171
1.80002133333333,2.20645
1.80082133333333,2.24017
1.80162133333333,2.27285
1.80242133333333,2.3045
1.80322133333333,2.33512
1.80402133333333,2.36471
1.80482133333333,2.39327
1.80562133333333,2.42081
1.80642133333333,2.44732
1.80722133333333,2.47281
1.80802133333333,2.49728
1.80882133333333,2.52074
1.80962133333333,2.54321
1.81042133333333,2.56467
1.81122133333333,2.58516
1.81202133333333,2.60466
1.81282133333333,2.6232
1.81362133333333,2.64078
1.81442133333333,2.65741
1.81522133333333,2.6731
1.81602133333333,2.68786
1.81682133333333,2.7017
1.81762133333333,2.71463
1.81842133333333,2.72665
1.81922133333333,2.73779
1.82002133333333,2.74804
1.82082133333333,2.75743
1.82162133333333,2.76595
1.82242133333333,2.77363
1.82322133333333,2.78046
1.82402133333333,2.78648
1.82482133333333,2.79167
1.82562133333333,2.79606
1.82642133333333,2.79966
1.82722133333333,2.80248
1.82802133333333,2.80454
1.82882133333333,2.80584
1.82962133333333,2.8064
1.83042133333333,2.80624
1.83122133333333,2.80537
1.83202133333333,2.8038
1.83282133333333,2.80156
1.83362133333333,2.79865
1.83442133333333,2.79509
1.83522133333333,2.79091
1.83602133333333,2.78611
1.83682133333333,2.78072
1.83762133333333,2.77476
1.83842133333333,2.76824
1.83922133333333,2.76118
1.84002133333333,2.7536
1.84082133333333,2.74552
1.84162133333333,2.73696
1.84242133333333,2.72794
1.84322133333333,2.71848
1.84402133333333,2.7086
1.84482133333333,2.69831
1.84562133333333,2.68764
1.84642133333333,2.6766
1.84722133333333,2.66521
1.84802133333333,2.65348
1.84882133333333,2.64143
1.84962133333333,2.62907
1.85042133333333,2.61643
1.85122133333333,2.60352
1.85202133333333,2.59034
1.85282133333333,2.57691
1.85362133333333,2.56326
1.85442133333333,2.54938
1.85522133333333,2.5353
1.85602133333333,2.52103
1.85682133333333,2.50657
1.85762133333333,2.49195
1.85842133333333,2.47716
1.85922133333333,2.46224
1.86002133333333,2.44717
1.86082133333333,2.43197
1.86162133333333,2.41665
1.86242133333333,2.40122
1.86322133333333,2.38567
1.86402133333333,2.37003
1.86482133333333,2.35429
1.86562133333333,2.33847
1.86642133333333,2.32256
1.86722133333333,2.30658
1.86802133333333,2.29053
1.86882133333333,2.27442
1.86962133333333,2.25825
1.87042133333333,2.24203
1.87122133333333,2.22576
1.87202133333333,2.20945
1.87282133333333,2.1931
1.87362133333333,2.17672
1.87442133333333,2.16031
1.87522133333333,2.14389
1.87602133333333,2.12744
1.87682133333333,2.11099
1.87762133333333,2.09453
1.87842133333333,2.07807
1.87922133333333,2.06161
1.88002133333333,2.04516
1.88082133333333,2.02872
1.88162133333333,2.0123
1.88242133333333,1.9959
1.88322133333333,1.97951
1.88402133333333,1.96315
1.88482133333333,1.94682
1.88562133333333,1.93051
1.88642133333333,1.91424
1.88722133333333,1.89799
1.88802133333333,1.88178
1.88882133333333,1.8656
1.88962133333333,1.84946
1.89042133333333,1.83336
1.89122133333333,1.8173
1.89202133333333,1.80128
1.89282133333333,1.78531
1.89362133333333,1.76938
1.89442133333333,1.7535
1.89522133333333,1.73766
1.89602133333333,1.72188
1.89682133333333,1.70614
1.89762133333333,1.69046
1.89842133333333,1.67482
1.89922133333333,1.65923
1.90002133333333,1.6437
1.90082133333333,1.62822
1.90162133333333,1.61279
1.90242133333333,1.59742
1.90322133333333,1.58209
1.90402133333333,1.56682
1.90482133333333,1.5516
1.90562133333333,1.53644
1.90642133333333,1.52132
1.90722133333333,1.50626
1.90802133333333,1.49125
1.90882133333333,1.47629
1.90962133333333,1.46137
1.91042133333333,1.44651
1.91122133333333,1.4317
1.91202133333333,1.41693
1.91282133333333,1.40221
1.91362133333333,1.38755
1.91442133333333,1.37292
1.91522133333333,1.35835
1.91602133333333,1.34382
1.91682133333333,1.32933
1.91762133333333,1.31488
1.91842133333333,1.30048
1.91922133333333,1.28611
1.92002133333333,1.27178
1.92082133333333,1.25748
1.92162133333333,1.24322
1.92242133333333,1.22899
1.92322133333333,1.21478
1.92402133333333,1.2006
1.92482133333333,1.18644
1.92562133333333,1.1723
1.92642133333333,1.15817
1.92722133333333,1.14406
1.92802133333333,1.12996
1.92882133333333,1.11586
1.92962133333333,1.10176
1.93042133333333,1.08766
1.93122133333333,1.07356
1.93202133333333,1.05944
1.93282133333333,1.0453
1.93362133333333,1.03115
1.93442133333333,1.01697
1.93522133333333,1.00277
1.93602133333333,0.98854
1.93682133333333,0.97427
1.93762133333333,0.95997
1.93842133333333,0.94563
1.93922133333333,0.93125
1.94002133333333,0.91683
1.94082133333333,0.90237
1.94162133333333,0.88786
1.94242133333333,0.87331
1.94322133333333,0.85871
1.94402133333333,0.84408
1.94482133333333,0.8294
1.94562133333333,0.81468
1.94642133333333,0.79992
1.94722133333333,0.78513
1.94802133333333,0.77031
1.94882133333333,0.75545
1.94962133333333,0.74057
1.95042133333333,0.72567
1.95122133333333,0.71075
1.95202133333333,0.69581
1.95282133333333,0.68087
1.95362133333333,0.66593
1.95442133333333,0.65099
1.95522133333333,0.63606
1.95602133333333,0.62115
1.95682133333333,0.60627
1.95762133333333,0.59142
1.95842133333333,0.57661
1.95922133333333,0.56185
1.96002133333333,0.54714
1.96082133333333,0.53251
1.96162133333333,0.51795
1.96242133333333,0.50347
1.96322133333333,0.48908
1.96402133333333,0.4748
1.96482133333333,0.46062
1.96562133333333,0.44655
1.96642133333333,0.43261
1.96722133333333,0.41879
1.96802133333333,0.40511
1.96882133333333,0.39157
1.96962133333333,0.37817
1.97042133333333,0.36492
1.97122133333333,0.35184
1.97202133333333,0.33892
1.97282133333333,0.32617
1.97362133333333,0.31359
1.97442133333333,0.30119
1.97522133333333,0.28897
1.97602133333333,0.27694
1.97682133333333,0.2651
1.97762133333333,0.25345
1.97842133333333,0.242
1.97922133333333,0.23075
1.98002133333333,0.2197
1.98082133333333,0.20886
1.98162133333333,0.19824
1.98242133333333,0.18783
1.98322133333333,0.17764
1.98402133333333,0.16766
1.98482133333333,0.15791
1.98562133333333,0.14839
1.98642133333333,0.1391
1.98722133333333,0.13004
1.98802133333333,0.12121
1.98882133333333,0.11261
1.98962133333333,0.10426
1.99042133333333,0.09614
1.99122133333333,0.08826
1.99202133333333,0.08062
1.99282133333333,0.07322
1.99362133333333,0.06606
1.99442133333333,0.05915
1.99522133333333,0.05249
1.99602133333333,0.04606
1.99682133333333,0.03988
1.99762133333333,0.03395
1.99842133333333,0.02826
1.99922133333333,0.02281
2.00002133333333,0.01761
2.00082133333333,0.01265
2.00162133333333,0.00794
2.00242133333333,0.00347
2.00322133333333,-0.00075
2.00402133333333,-0.00473
2.00482133333333,-0.00846
2.00562133333333,-0.01193
2.00642133333333,-0.01516
2.00722133333333,-0.01813
2.00802133333333,-0.02085
2.00882133333333,-0.02331
2.00962133333333,-0.02552
2.01042133333333,-0.02747
2.01122133333333,-0.02917
2.01202133333333,-0.03062
2.01282133333333,-0.03181
2.01362133333333,-0.03275
2.01442133333333,-0.03345
2.01522133333333,-0.0339
2.01602133333333,-0.0341
2.01682133333333,-0.03405
2.01762133333333,-0.03377
2.01842133333333,-0.03325
2.01922133333333,-0.0325
2.02002133333333,-0.03153
2.02082133333333,-0.03033
2.02162133333333,-0.02891
2.02242133333333,-0.02727
2.02322133333333,-0.02544
2.02402133333333,-0.0234
2.02482133333333,-0.02116
2.02562133333333,-0.01872
2.02642133333333,-0.0161
2.02722133333333,-0.01329
2.02802133333333,-0.0103
2.02882133333333,-0.00713
2.02962133333333,-0.00379
2.03042133333333,-0.00027
2.03122133333333,0.00341
2.03202133333333,0.00726
2.03282133333333,0.01127
2.03362133333333,0.01544
2.03442133333333,0.01976
2.03522133333333,0.02423
2.03602133333333,0.02885
2.03682133333333,0.03362
2.03762133333333,0.03852
2.03842133333333,0.04356
2.03922133333333,0.04873
2.04002133333333,0.05402
2.04082133333333,0.05942
2.04162133333333,0.06494
2.04242133333333,0.07057
2.04322133333333,0.07629
2.04402133333333,0.0821
2.04482133333333,0.08801
2.04562133333333,0.09398
2.04642133333333,0.10003
2.04722133333333,0.10614
2.04802133333333,0.1123
2.04882133333333,0.11851
2.04962133333333,0.12476
2.05042133333333,0.13104
2.05122133333333,0.13734
2.05202133333333,0.14366
2.05282133333333,0.15
2.05362133333333,0.15634
2.05442133333333,0.16268
2.05522133333333,0.16901
2.05602133333333,0.17533
2.05682133333333,0.18164
2.05762133333333,0.18792
2.05842133333333,0.19417
2.05922133333333,0.20039
2.06002133333333,0.20657
2.06082133333333,0.21271
2.06162133333333,0.2188
2.06242133333333,0.22484
2.06322133333333,0.23082
2.06402133333333,0.23675
2.06482133333333,0.2426
2.06562133333333,0.24839
2.06642133333333,0.2541
2.06722133333333,0.25973
2.06802133333333,0.26527
2.06882133333333,0.27072
2.06962133333333,0.27607
2.07042133333333,0.28132
2.07122133333333,0.28647
2.07202133333333,0.2915
2.07282133333333,0.29642
2.07362133333333,0.30121
2.07442133333333,0.30588
2.07522133333333,0.31043
2.07602133333333,0.31484
2.07682133333333,0.31913
2.07762133333333,0.32328
2.07842133333333,0.32729
2.07922133333333,0.33117
2.08002133333333,0.33491
2.08082133333333,0.33851
2.08162133333333,0.34197
2.08242133333333,0.34528
2.08322133333333,0.34844
2.08402133333333,0.35145
2.08482133333333,0.3543
2.08562133333333,0.35699
2.08642133333333,0.35952
2.08722133333333,0.36189
2.08802133333333,0.36408
2.08882133333333,0.36609
2.08962133333333,0.36793
2.09042133333333,0.36958
2.09122133333333,0.37105
2.09202133333333,0.37233
2.09282133333333,0.37342
2.09362133333333,0.37431
2.09442133333333,0.375
2.09522133333333,0.3755
2.09602133333333,0.37578
2.09682133333333,0.37587
2.09762133333333,0.37574
2.09842133333333,0.37539
2.09922133333333,0.37484
2.10002133333333,0.37406
2.10082133333333,0.37306
2.10162133333333,0.37184
2.10242133333333,0.3704
2.10322133333333,0.36874
2.10402133333333,0.36685
2.10482133333333,0.36473
2.10562133333333,0.36238
2.10642133333333,0.35981
2.10722133333333,0.35702
2.10802133333333,0.354
2.10882133333333,0.35075
2.10962133333333,0.34727
2.11042133333333,0.34357
2.11122133333333,0.33964
2.11202133333333,0.33548
2.11282133333333,0.3311
2.11362133333333,0.32649
2.11442133333333,0.32165
2.11522133333333,0.31659
2.11602133333333,0.31131
2.11682133333333,0.3058
2.11762133333333,0.30008
2.11842133333333,0.29414
2.11922133333333,0.28798
2.12002133333333,0.28161
2.12082133333333,0.27504
2.12162133333333,0.26825
2.12242133333333,0.26127
2.12322133333333,0.25408
2.12402133333333,0.2467
2.12482133333333,0.23913
2.12562133333333,0.23138
2.12642133333333,0.22344
2.12722133333333,0.21532
2.12802133333333,0.20704
2.12882133333333,0.19859
2.12962133333333,0.18998
2.13042133333333,0.18121
2.13122133333333,0.1723
2.13202133333333,0.16324
2.13282133333333,0.15405
2.13362133333333,0.14472
2.13442133333333,0.13527
2.13522133333333,0.12569
2.13602133333333,0.116
2.13682133333333,0.1062
2.13762133333333,0.0963
2.13842133333333,0.0863
2.13922133333333,0.07621
2.14002133333333,0.06602
2.14082133333333,0.05576
2.14162133333333,0.04541
2.14242133333333,0.03499
2.14322133333333,0.02449
2.14402133333333,0.01393
2.14482133333333,0.00331
2.14562133333333,-0.00738
2.14642133333333,-0.01812
2.14722133333333,-0.02892
2.14802133333333,-0.03977
2.14882133333333,-0.05067
2.14962133333333,-0.06161
2.15042133333333,-0.0726
2.15122133333333,-0.08362
2.15202133333333,-0.09469
2.15282133333333,-0.10578
2.15362133333333,-0.11692
2.15442133333333,-0.12808
2.15522133333333,-0.13926
2.15602133333333,-0.15047
2.15682133333333,-0.1617
2.15762133333333,-0.17294
2.15842133333333,-0.1842
2.15922133333333,-0.19547
2.16002133333333,-0.20675
2.16082133333333,-0.21804
2.16162133333333,-0.22933
2.16242133333333,-0.24062
2.16322133333333,-0.25192
2.16402133333333,-0.26322
2.16482133333333,-0.27452
2.16562133333333,-0.28581
2.16642133333333,-0.29711
2.16722133333333,-0.3084
2.16802133333333,-0.31969
2.16882133333333,-0.33097
2.16962133333333,-0.34224
2.17042133333333,-0.35351
2.17122133333333,-0.36477
2.17202133333333,-0.37602
2.17282133333333,-0.38727
2.17362133333333,-0.39851
2.17442133333333,-0.40974
2.17522133333333,-0.42097
2.17602133333333,-0.43219
2.17682133333333,-0.44341
2.17762133333333,-0.45462
2.17842133333333,-0.46582
2.17922133333333,-0.47701
2.18002133333333,-0.48819
2.18082133333333,-0.49936
2.18162133333333,-0.51052
2.18242133333333,-0.52167
2.18322133333333,-0.5328
2.18402133333333,-0.54392
2.18482133333333,-0.55503
2.18562133333333,-0.56612
2.18642133333333,-0.5772
2.18722133333333,-0.58827
2.18802133333333,-0.59932
2.18882133333333,-0.61036
2.18962133333333,-0.62138
2.19042133333333,-0.63239
2.19122133333333,-0.64339
2.19202133333333,-0.65437
2.19282133333333,-0.66533
2.19362133333333,-0.67627
2.19442133333333,-0.68719
2.19522133333333,-0.6981
2.19602133333333,-0.70898
2.19682133333333,-0.71984
2.19762133333333,-0.73068
2.19842133333333,-0.7415
2.19922133333333,-0.75229
2.20002133333333,-0.76306
2.20082133333333,-0.7738
2.20162133333333,-0.78452
2.20242133333333,-0.79522
2.20322133333333,-0.8059
2.20402133333333,-0.81655
2.20482133333333,-0.82718
2.20562133333333,-0.83779
2.20642133333333,-0.84838
2.20722133333333,-0.85894
2.20802133333333,-0.8695
2.20882133333333,-0.88003
2.20962133333333,-0.89055
2.21042133333333,-0.90105
2.21122133333333,-0.91154
2.21202133333333,-0.92201
2.21282133333333,-0.93247
2.21362133333333,-0.94292
2.21442133333333,-0.95335
2.21522133333333,-0.96378
2.21602133333333,-0.9742
2.21682133333333,-0.98462
2.21762133333333,-0.99504
2.21842133333333,-1.00545
2.21922133333333,-1.01586
2.22002133333333,-1.02627
2.22082133333333,-1.03669
2.22162133333333,-1.0471
2.22242133333333,-1.05752
2.22322133333333,-1.06795
2.22402133333333,-1.07837
2.22482133333333,-1.08881
2.22562133333333,-1.09925
2.22642133333333,-1.1097
2.22722133333333,-1.12017
2.22802133333333,-1.13065
2.22882133333333,-1.14114
2.22962133333333,-1.15164
2.23042133333333,-1.16216
2.23122133333333,-1.1727
2.23202133333333,-1.18326
2.23282133333333,-1.19384
2.23362133333333,-1.20444
2.23442133333333,-1.21507
2.23522133333333,-1.22573
2.23602133333333,-1.23642
2.23682133333333,-1.24714
2.23762133333333,-1.2579
2.23842133333333,-1.2687
2.23922133333333,-1.27953
2.24002133333333,-1.29041
2.24082133333333,-1.30134
2.24162133333333,-1.31231
2.24242133333333,-1.32333
2.24322133333333,-1.3344
2.24402133333333,-1.34552
2.24482133333333,-1.3567
2.24562133333333,-1.36793
2.24642133333333,-1.37922
2.24722133333333,-1.39056
2.24802133333333,-1.40197
2.24882133333333,-1.41344
2.24962133333333,-1.42496
2.25042133333333,-1.43656
2.25122133333333,-1.44821
2.25202133333333,-1.45994
2.25282133333333,-1.47173
2.25362133333333,-1.48359
2.25442133333333,-1.49552
2.25522133333333,-1.50751
2.25602133333333,-1.51958
2.25682133333333,-1.53171
2.25762133333333,-1.5439
2.25842133333333,-1.55616
2.25922133333333,-1.56848
2.26002133333333,-1.58086
2.26082133333333,-1.59329
2.26162133333333,-1.60578
2.26242133333333,-1.61832
2.26322133333333,-1.63092
2.26402133333333,-1.64355
2.26482133333333,-1.65624
2.26562133333333,-1.66896
2.26642133333333,-1.68172
2.26722133333333,-1.69451
2.26802133333333,-1.70733
2.26882133333333,-1.72017
2.26962133333333,-1.73304
2.27042133333333,-1.74592
2.27122133333333,-1.75881
2.27202133333333,-1.77171
2.27282133333333,-1.78462
2.27362133333333,-1.79753
2.27442133333333,-1.81044
2.27522133333333,-1.82335
2.27602133333333,-1.83625
2.27682133333333,-1.84915
2.27762133333333,-1.86204
2.27842133333333,-1.8749
2.27922133333333,-1.88775
2.28002133333333,-1.90058
2.28082133333333,-1.91338
2.28162133333333,-1.92614
2.28242133333333,-1.93887
2.28322133333333,-1.95156
2.28402133333333,-1.9642
2.28482133333333,-1.97679
2.28562133333333,-1.98932
2.28642133333333,-2.00178
2.28722133333333,-2.01417
2.28802133333333,-2.02648
2.28882133333333,-2.0387
2.28962133333333,-2.05083
2.29042133333333,-2.06285
2.29122133333333,-2.07475
2.29202133333333,-2.08654
2.29282133333333,-2.09819
2.29362133333333,-2.1097
2.29442133333333,-2.12107
2.29522133333333,-2.13227
2.29602133333333,-2.14329
2.29682133333333,-2.15414
2.29762133333333,-2.16478
2.29842133333333,-2.17522
2.29922133333333,-2.18543
2.30002133333333,-2.1954
2.30082133333333,-2.20513
2.30162133333333,-2.2146
2.30242133333333,-2.22379
2.30322133333333,-2.2327
2.30402133333333,-2.2413
2.30482133333333,-2.24959
2.30562133333333,-2.25755
2.30642133333333,-2.26518
2.30722133333333,-2.27244
2.30802133333333,-2.27934
2.30882133333333,-2.28585
2.30962133333333,-2.29195
2.31042133333333,-2.29764
2.31122133333333,-2.3029
2.31202133333333,-2.3077
2.31282133333333,-2.31203
2.31362133333333,-2.31588
2.31442133333333,-2.31923
2.31522133333333,-2.32205
2.31602133333333,-2.32433
2.31682133333333,-2.32605
2.31762133333333,-2.32719
2.31842133333333,-2.32773
2.31922133333333,-2.32766
2.32002133333333,-2.32695
2.32082133333333,-2.32559
2.32162133333333,-2.32356
2.32242133333333,-2.32083
2.32322133333333,-2.31738
2.32402133333333,-2.3132
2.32482133333333,-2.30826
2.32562133333333,-2.30254
2.32642133333333,-2.29602
2.32722133333333,-2.28868
2.32802133333333,-2.2805
2.32882133333333,-2.27146
2.32962133333333,-2.26153
2.33042133333333,-2.25069
2.33122133333333,-2.23893
2.33202133333333,-2.22623
2.33282133333333,-2.21256
2.33362133333333,-2.19792
2.33442133333333,-2.18228
2.33522133333333,-2.16562
2.33602133333333,-2.14794
2.33682133333333,-2.12922
2.33762133333333,-2.10944
2.33842133333333,-2.0886
2.33922133333333,-2.06668
2.34002133333333,-2.04368
2.34082133333333,-2.01957
2.34162133333333,-1.99437
2.34242133333333,-1.96805
2.34322133333333,-1.94061
2.34402133333333,-1.91205
2.34482133333333,-1.88237
2.34562133333333,-1.85155
2.34642133333333,-1.81961
2.34722133333333,-1.78653
2.34802133333333,-1.75233
2.34882133333333,-1.71701
2.34962133333333,-1.68057
2.35042133333333,-1.64302
2.35122133333333,-1.60437
2.35202133333333,-1.56462
2.35282133333333,-1.5238
2.35362133333333,-1.48191
2.35442133333333,-1.43897
2.35522133333333,-1.39499
2.35602133333333,-1.35
2.35682133333333,-1.30402
2.35762133333333,-1.25707
2.35842133333333,-1.20917
2.35922133333333,-1.16036
2.36002133333333,-1.11066
2.36082133333333,-1.0601
2.36162133333333,-1.00872
2.36242133333333,-0.95654
2.36322133333333,-0.90362
2.36402133333333,-0.84997
2.36482133333333,-0.79564
2.36562133333333,-0.74067
2.36642133333333,-0.68509
2.36722133333333,-0.62895
2.36802133333333,-0.57228
2.36882133333333,-0.51514
2.36962133333333,-0.45756
2.37042133333333,-0.39958
2.37122133333333,-0.34125
2.37202133333333,-0.28261
2.37282133333333,-0.2237
2.37362133333333,-0.16456
2.37442133333333,-0.10525
2.37522133333333,-0.04579
2.37602133333333,0.01376
2.37682133333333,0.07337
2.37762133333333,0.13298
2.37842133333333,0.19257
2.37922133333333,0.25208
2.38002133333333,0.31148
2.38082133333333,0.37073
2.38162133333333,0.42977
2.38242133333333,0.48858
2.38322133333333,0.54712
2.38402133333333,0.60534
2.38482133333333,0.66322
2.38562133333333,0.72072
2.38642133333333,0.77779
2.38722133333333,0.83442
2.38802133333333,0.89056
2.38882133333333,0.94618
2.38962133333333,1.00126
2.39042133333333,1.05576
2.39122133333333,1.10965
2.39202133333333,1.1629
2.39282133333333,1.2155
2.39362133333333,1.2674
2.39442133333333,1.3186
2.39522133333333,1.36905
2.39602133333333,1.41875
2.39682133333333,1.46768
2.39762133333333,1.5158
2.39842133333333,1.56311
2.39922133333333,1.60959
2.40002133333333,1.65522
2.40082133333333,1.69999
2.40162133333333,1.74389
2.40242133333333,1.7869
2.40322133333333,1.829
2.40402133333333,1.8702
2.40482133333333,1.91046
2.40562133333333,1.94979
2.40642133333333,1.98817
2.40722133333333,2.02559
2.40802133333333,2.06204
2.40882133333333,2.09752
2.40962133333333,2.13203
2.41042133333333,2.16555
2.41122133333333,2.19808
2.41202133333333,2.22961
2.41282133333333,2.26015
2.41362133333333,2.2897
2.41442133333333,2.31825
2.41522133333333,2.3458
2.41602133333333,2.37235
2.41682133333333,2.3979
2.41762133333333,2.42245
2.41842133333333,2.44601
2.41922133333333,2.46858
2.42002133333333,2.49015
2.42082133333333,2.51075
2.42162133333333,2.53036
2.42242133333333,2.549
2.42322133333333,2.56668
2.42402133333333,2.5834
2.42482133333333,2.59917
2.42562133333333,2.614
2.42642133333333,2.62791
2.42722133333333,2.6409
2.42802133333333,2.653
2.42882133333333,2.6642
2.42962133333333,2.67453
2.43042133333333,2.684
2.43122133333333,2.69263
2.43202133333333,2.70043
2.43282133333333,2.70741
2.43362133333333,2.7136
2.43442133333333,2.719
2.43522133333333,2.72363
2.43602133333333,2.72752
2.43682133333333,2.73066
2.43762133333333,2.73309
2.43842133333333,2.73482
2.43922133333333,2.73586
2.44002133333333,2.73623
2.44082133333333,2.73595
2.44162133333333,2.73502
2.44242133333333,2.73348
2.44322133333333,2.73133
2.44402133333333,2.7286
2.44482133333333,2.7253
2.44562133333333,2.72145
2.44642133333333,2.71708
2.44722133333333,2.71218
2.44802133333333,2.7068
2.44882133333333,2.70093
2.44962133333333,2.69461
2.45042133333333,2.68784
2.45122133333333,2.68064
2.45202133333333,2.67303
2.45282133333333,2.66502
2.45362133333333,2.65663
2.45442133333333,2.64786
2.45522133333333,2.63875
2.45602133333333,2.62929
2.45682133333333,2.6195
2.45762133333333,2.60939
2.45842133333333,2.59897
2.45922133333333,2.58827
2.46002133333333,2.57727
2.46082133333333,2.56601
2.46162133333333,2.55448
2.46242133333333,2.54269
2.46322133333333,2.53067
2.46402133333333,2.51841
2.46482133333333,2.50593
2.46562133333333,2.49324
2.46642133333333,2.48035
2.46722133333333,2.46727
2.46802133333333,2.45401
2.46882133333333,2.44059
2.46962133333333,2.427
2.47042133333333,2.41327
2.47122133333333,2.3994
2.47202133333333,2.3854
2.47282133333333,2.3713
2.47362133333333,2.35709
2.47442133333333,2.34278
2.47522133333333,2.3284
2.47602133333333,2.31394
2.47682133333333,2.29942
2.47762133333333,2.28485
2.47842133333333,2.27024
2.47922133333333,2.25559
2.48002133333333,2.24091
2.48082133333333,2.22622
2.48162133333333,2.21151
2.48242133333333,2.19679
2.48322133333333,2.18208
2.48402133333333,2.16737
2.48482133333333,2.15268
2.48562133333333,2.138
2.48642133333333,2.12335
2.48722133333333,2.10872
2.48802133333333,2.09412
2.48882133333333,2.07956
2.48962133333333,2.06504
2.49042133333333,2.05056
2.49122133333333,2.03612
2.49202133333333,2.02172
2.49282133333333,2.00737
2.49362133333333,1.99306
2.49442133333333,1.9788
2.49522133333333,1.9646
2.49602133333333,1.95043
2.49682133333333,1.93632
2.49762133333333,1.92226
2.49842133333333,1.90824
2.49922133333333,1.89427
2.50002133333333,1.88034
2.50082133333333,1.86646
2.50162133333333,1.85261
2.50242133333333,1.83881
2.50322133333333,1.82504
2.50402133333333,1.81131
2.50482133333333,1.79761
2.50562133333333,1.78394
2.50642133333333,1.7703
2.50722133333333,1.75669
2.50802133333333,1.74311
2.50882133333333,1.72955
2.50962133333333,1.71602
2.51042133333333,1.70252
2.51122133333333,1.68905
2.51202133333333,1.67559
2.51282133333333,1.66217
2.51362133333333,1.64877
2.51442133333333,1.63539
2.51522133333333,1.62204
2.51602133333333,1.60871
2.51682133333333,1.59541
2.51762133333333,1.58212
2.51842133333333,1.56885
2.51922133333333,1.55559
2.52002133333333,1.54235
2.52082133333333,1.52912
2.52162133333333,1.51589
2.52242133333333,1.50267
2.52322133333333,1.48944
2.52402133333333,1.47622
2.52482133333333,1.46298
2.52562133333333,1.44974
2.52642133333333,1.43648
2.52722133333333,1.4232
2.52802133333333,1.4099
2.52882133333333,1.39656
2.52962133333333,1.38319
2.53042133333333,1.36979
2.53122133333333,1.35634
2.53202133333333,1.34284
2.53282133333333,1.3293
2.53362133333333,1.3157
2.53442133333333,1.30205
2.53522133333333,1.28834
2.53602133333333,1.27457
2.53682133333333,1.26074
2.53762133333333,1.24686
2.53842133333333,1.23291
2.53922133333333,1.2189
2.54002133333333,1.20483
2.54082133333333,1.1907
2.54162133333333,1.17651
2.54242133333333,1.16226
2.54322133333333,1.14796
2.54402133333333,1.1336
2.54482133333333,1.11919
2.54562133333333,1.10472
2.54642133333333,1.0902
2.54722133333333,1.07564
2.54802133333333,1.06103
2.54882133333333,1.04638
2.54962133333333,1.03168
2.55042133333333,1.01696
2.55122133333333,1.0022
2.55202133333333,0.98741
2.55282133333333,0.97259
2.55362133333333,0.95775
2.55442133333333,0.94288
2.55522133333333,0.928
2.55602133333333,0.91311
2.55682133333333,0.8982
2.55762133333333,0.88328
2.55842133333333,0.86836
2.55922133333333,0.85343
2.56002133333333,0.8385
2.56082133333333,0.82357
2.56162133333333,0.80866
2.56242133333333,0.79375
2.56322133333333,0.77886
2.56402133333333,0.76399
2.56482133333333,0.74915
2.56562133333333,0.73433
2.56642133333333,0.71955
2.56722133333333,0.7048
2.56802133333333,0.6901
2.56882133333333,0.67545
2.56962133333333,0.66085
2.57042133333333,0.64631
2.57122133333333,0.63183
2.57202133333333,0.61743
2.57282133333333,0.60311
2.57362133333333,0.58887
2.57442133333333,0.57472
2.57522133333333,0.56066
2.57602133333333,0.5467
2.57682133333333,0.53284
2.57762133333333,0.51908
2.57842133333333,0.50544
2.57922133333333,0.49192
2.58002133333333,0.47853
2.58082133333333,0.46527
2.58162133333333,0.45215
2.58242133333333,0.43917
2.58322133333333,0.42634
2.58402133333333,0.41368
2.58482133333333,0.40117
2.58562133333333,0.38884
2.58642133333333,0.37669
2.58722133333333,0.36473
2.58802133333333,0.35296
2.58882133333333,0.34139
2.58962133333333,0.33002
2.59042133333333,0.31887
2.59122133333333,0.30794
2.59202133333333,0.29723
2.59282133333333,0.28675
2.59362133333333,0.27652
2.59442133333333,0.26653
2.59522133333333,0.25679
2.59602133333333,0.24731
2.59682133333333,0.2381
2.59762133333333,0.22915
2.59842133333333,0.22048
2.59922133333333,0.21209
2.60002133333333,0.20399
2.60082133333333,0.19618
2.60162133333333,0.18866
2.60242133333333,0.18143
2.60322133333333,0.17451
2.60402133333333,0.16789
2.60482133333333,0.16157
2.60562133333333,0.15556
2.60642133333333,0.14985
2.60722133333333,0.14445
2.60802133333333,0.13936
2.60882133333333,0.13457
2.60962133333333,0.13009
2.61042133333333,0.12591
2.61122133333333,0.12204
2.61202133333333,0.11846
2.61282133333333,0.11518
2.61362133333333,0.1122
2.61442133333333,0.10952
2.61522133333333,0.10713
2.61602133333333,0.10503
2.61682133333333,0.10322
2.61762133333333,0.1017
2.61842133333333,0.10046
2.61922133333333,0.09951
2.62002133333333,0.09883
2.62082133333333,0.09843
2.62162133333333,0.0983
2.62242133333333,0.09843
2.62322133333333,0.09883
2.62402133333333,0.09949
2.62482133333333,0.10039
2.62562133333333,0.10155
2.62642133333333,0.10294
2.62722133333333,0.10457
2.62802133333333,0.10644
2.62882133333333,0.10852
2.62962133333333,0.11084
2.63042133333333,0.11336
2.63122133333333,0.1161
2.63202133333333,0.11905
2.63282133333333,0.1222
2.63362133333333,0.12555
2.63442133333333,0.1291
2.63522133333333,0.13283
2.63602133333333,0.13674
2.63682133333333,0.14084
2.63762133333333,0.14511
2.63842133333333,0.14955
2.63922133333333,0.15415
2.64002133333333,0.15891
2.64082133333333,0.16383
2.64162133333333,0.16889
2.64242133333333,0.1741
2.64322133333333,0.17945
2.64402133333333,0.18492
2.64482133333333,0.19053
2.64562133333333,0.19624
2.64642133333333,0.20207
2.64722133333333,0.208
2.64802133333333,0.21403
2.64882133333333,0.22016
2.64962133333333,0.22636
2.65042133333333,0.23265
2.65122133333333,0.239
2.65202133333333,0.24543
2.65282133333333,0.25191
2.65362133333333,0.25846
2.65442133333333,0.26505
2.65522133333333,0.27168
2.65602133333333,0.27835
2.65682133333333,0.28506
2.65762133333333,0.29179
2.65842133333333,0.29854
2.65922133333333,0.30531
2.66002133333333,0.31209
2.66082133333333,0.31887
2.66162133333333,0.32565
2.66242133333333,0.33243
2.66322133333333,0.3392
2.66402133333333,0.34595
2.66482133333333,0.35269
2.66562133333333,0.3594
2.66642133333333,0.36609
2.66722133333333,0.37274
2.66802133333333,0.37935
2.66882133333333,0.38592
2.66962133333333,0.39244
2.67042133333333,0.3989
2.67122133333333,0.40531
2.67202133333333,0.41164
2.67282133333333,0.4179
2.67362133333333,0.42408
2.67442133333333,0.43018
2.67522133333333,0.43619
2.67602133333333,0.44211
2.67682133333333,0.44793
2.67762133333333,0.45365
2.67842133333333,0.45925
2.67922133333333,0.46474
2.68002133333333,0.47011
2.68082133333333,0.47536
2.68162133333333,0.48048
2.68242133333333,0.48547
2.68322133333333,0.49031
2.68402133333333,0.49501
2.68482133333333,0.49957
2.68562133333333,0.50397
2.68642133333333,0.50822
2.68722133333333,0.5123
2.68802133333333,0.51622
2.68882133333333,0.51998
2.68962133333333,0.52356
2.69042133333333,0.52696
2.69122133333333,0.53019
2.69202133333333,0.53324
2.69282133333333,0.5361
2.69362133333333,0.53878
2.69442133333333,0.54127
2.69522133333333,0.54357
2.69602133333333,0.54568
2.69682133333333,0.5476
2.69762133333333,0.54932
2.69842133333333,0.55085
2.69922133333333,0.55218
2.70002133333333,0.55332
2.70082133333333,0.55426
2.70162133333333,0.555
2.70242133333333,0.55555
2.70322133333333,0.55591
2.70402133333333,0.55608
2.70482133333333,0.55606
2.70562133333333,0.55584
2.70642133333333,0.55544
2.70722133333333,0.55485
2.70802133333333,0.55407
2.70882133333333,0.5531
2.70962133333333,0.55194
2.71042133333333,0.5506
2.71122133333333,0.54908
2.71202133333333,0.54736
2.71282133333333,0.54547
2.71362133333333,0.54339
2.71442133333333,0.54112
2.71522133333333,0.53868
2.71602133333333,0.53605
2.71682133333333,0.53324
2.71762133333333,0.53024
2.71842133333333,0.52706
2.71922133333333,0.5237
2.72002133333333,0.52016
2.72082133333333,0.51643
2.72162133333333,0.51253
2.72242133333333,0.50844
2.72322133333333,0.50417
2.72402133333333,0.49972
2.72482133333333,0.49509
2.72562133333333,0.49027
2.72642133333333,0.48528
2.72722133333333,0.48011
2.72802133333333,0.47476
2.72882133333333,0.46924
2.72962133333333,0.46354
2.73042133333333,0.45766
2.73122133333333,0.45162
2.73202133333333,0.4454
2.73282133333333,0.43902
2.73362133333333,0.43247
2.73442133333333,0.42577
2.73522133333333,0.4189
2.73602133333333,0.41188
2.73682133333333,0.4047
2.73762133333333,0.39738
2.73842133333333,0.38991
2.73922133333333,0.38229
2.74002133333333,0.37453
2.74082133333333,0.36663
2.74162133333333,0.35859
2.74242133333333,0.35041
2.74322133333333,0.3421
2.74402133333333,0.33366
2.74482133333333,0.32508
2.74562133333333,0.31637
2.74642133333333,0.30752
2.74722133333333,0.29854
2.74802133333333,0.28943
2.74882133333333,0.28018
2.74962133333333,0.27081
2.75042133333333,0.2613
2.75122133333333,0.25167
2.75202133333333,0.24191
2.75282133333333,0.23203
2.75362133333333,0.22203
2.75442133333333,0.21192
2.75522133333333,0.20169
2.75602133333333,0.19136
2.75682133333333,0.18091
2.75762133333333,0.17037
2.75842133333333,0.15972
2.75922133333333,0.14897
2.76002133333333,0.13812
2.76082133333333,0.12718
2.76162133333333,0.11615
2.76242133333333,0.10503
2.76322133333333,0.09382
2.76402133333333,0.08252
2.76482133333333,0.07115
2.76562133333333,0.0597
2.76642133333333,0.04817
2.76722133333333,0.03657
2.76802133333333,0.02491
2.76882133333333,0.01319
2.76962133333333,0.00142
2.77042133333333,-0.0104
2.77122133333333,-0.02227
2.77202133333333,-0.03419
2.77282133333333,-0.04613
2.77362133333333,-0.05812
2.77442133333333,-0.07013
2.77522133333333,-0.08217
2.77602133333333,-0.09423
2.77682133333333,-0.10631
2.77762133333333,-0.11841
2.77842133333333,-0.13052
2.77922133333333,-0.14265
2.78002133333333,-0.15478
2.78082133333333,-0.16692
2.78162133333333,-0.17906
2.78242133333333,-0.19121
2.78322133333333,-0.20335
2.78402133333333,-0.2155
2.78482133333333,-0.22764
2.78562133333333,-0.23978
2.78642133333333,-0.25191
2.78722133333333,-0.26404
2.78802133333333,-0.27616
2.78882133333333,-0.28828
2.78962133333333,-0.30039
2.79042133333333,-0.3125
2.79122133333333,-0.32461
2.79202133333333,-0.33671
2.79282133333333,-0.3488
2.79362133333333,-0.36089
2.79442133333333,-0.37298
2.79522133333333,-0.38505
2.79602133333333,-0.39712
2.79682133333333,-0.40918
2.79762133333333,-0.42124
2.79842133333333,-0.43328
2.79922133333333,-0.4453
2.80002133333333,-0.45731
2.80082133333333,-0.46929
2.80162133333333,-0.48125
2.80242133333333,-0.49319
2.80322133333333,-0.50509
2.80402133333333,-0.51697
2.80482133333333,-0.52881
2.80562133333333,-0.5406
2.80642133333333,-0.55236
2.80722133333333,-0.56406
2.80802133333333,-0.57571
2.80882133333333,-0.58731
2.80962133333333,-0.59884
2.81042133333333,-0.6103
2.81122133333333,-0.6217
2.81202133333333,-0.63302
2.81282133333333,-0.64426
2.81362133333333,-0.65543
2.81442133333333,-0.66651
2.81522133333333,-0.67751
2.81602133333333,-0.68843
2.81682133333333,-0.69927
2.81762133333333,-0.71001
2.81842133333333,-0.72068
2.81922133333333,-0.73126
2.82002133333333,-0.74176
2.82082133333333,-0.75217
2.82162133333333,-0.76251
2.82242133333333,-0.77277
2.82322133333333,-0.78295
2.82402133333333,-0.79306
2.82482133333333,-0.80309
2.82562133333333,-0.81306
2.82642133333333,-0.82296
2.82722133333333,-0.8328
2.82802133333333,-0.84258
2.82882133333333,-0.85231
2.82962133333333,-0.86199
2.83042133333333,-0.87161
2.83122133333333,-0.8812
2.83202133333333,-0.89074
2.83282133333333,-0.90026
2.83362133333333,-0.90973
2.83442133333333,-0.91918
2.83522133333333,-0.9286
2.83602133333333,-0.938
2.83682133333333,-0.94738
2.83762133333333,-0.95674
2.83842133333333,-0.96609
2.83922133333333,-0.97543
2.84002133333333,-0.98476
2.84082133333333,-0.99409
2.84162133333333,-1.00343
2.84242133333333,-1.01277
2.84322133333333,-1.02212
2.84402133333333,-1.03148
2.84482133333333,-1.04086
2.84562133333333,-1.05025
2.84642133333333,-1.05966
2.84722133333333,-1.0691
2.84802133333333,-1.07855
2.84882133333333,-1.08803
2.84962133333333,-1.09754
2.85042133333333,-1.10707
2.85122133333333,-1.11662
2.85202133333333,-1.12621
2.85282133333333,-1.13582
2.85362133333333,-1.14545
2.85442133333333,-1.15511
2.85522133333333,-1.16479
2.85602133333333,-1.17449
2.85682133333333,-1.18421
2.85762133333333,-1.19395
2.85842133333333,-1.2037
2.85922133333333,-1.21346
2.86002133333333,-1.22324
2.86082133333333,-1.23302
2.86162133333333,-1.24282
2.86242133333333,-1.25262
2.86322133333333,-1.26242
2.86402133333333,-1.27223
2.86482133333333,-1.28204
2.86562133333333,-1.29185
2.86642133333333,-1.30167
2.86722133333333,-1.31149
2.86802133333333,-1.32131
2.86882133333333,-1.33114
2.86962133333333,-1.34097
2.87042133333333,-1.3508
2.87122133333333,-1.36064
2.87202133333333,-1.37048
2.87282133333333,-1.38032
2.87362133333333,-1.39016
2.87442133333333,-1.40001
2.87522133333333,-1.40985
2.87602133333333,-1.4197
2.87682133333333,-1.42955
2.87762133333333,-1.43939
2.87842133333333,-1.44923
2.87922133333333,-1.45907
2.88002133333333,-1.4689
2.88082133333333,-1.47872
2.88162133333333,-1.48853
2.88242133333333,-1.49833
2.88322133333333,-1.50812
2.88402133333333,-1.51789
2.88482133333333,-1.52764
2.88562133333333,-1.53737
2.88642133333333,-1.54709
2.88722133333333,-1.55679
2.88802133333333,-1.56648
2.88882133333333,-1.57614
2.88962133333333,-1.58579
2.89042133333333,-1.59542
2.89122133333333,-1.60504
2.89202133333333,-1.61465
2.89282133333333,-1.62424
2.89362133333333,-1.63382
2.89442133333333,-1.64339
2.89522133333333,-1.65295
2.89602133333333,-1.6625
2.89682133333333,-1.67205
2.89762133333333,-1.68158
2.89842133333333,-1.6911
2.89922133333333,-1.70062
2.90002133333333,-1.71012
2.90082133333333,-1.71962
2.90162133333333,-1.72911
2.90242133333333,-1.73859
2.90322133333333,-1.74806
2.90402133333333,-1.75752
2.90482133333333,-1.76697
2.90562133333333,-1.77641
2.90642133333333,-1.78584
2.90722133333333,-1.79525
2.90802133333333,-1.80465
2.90882133333333,-1.81402
2.90962133333333,-1.82338
2.91042133333333,-1.83272
2.91122133333333,-1.84204
2.91202133333333,-1.85134
2.91282133333333,-1.86061
2.91362133333333,-1.86986
2.91442133333333,-1.87908
2.91522133333333,-1.88827
2.91602133333333,-1.89743
2.91682133333333,-1.90657
2.91762133333333,-1.91569
2.91842133333333,-1.92478
2.91922133333333,-1.93384
2.92002133333333,-1.94289
2.92082133333333,-1.95191
2.92162133333333,-1.96091
2.92242133333333,-1.9699
2.92322133333333,-1.97887
2.92402133333333,-1.98782
2.92482133333333,-1.99675
2.92562133333333,-2.00566
2.92642133333333,-2.01455
2.92722133333333,-2.02342
2.92802133333333,-2.03226
2.92882133333333,-2.04106
2.92962133333333,-2.04983
2.93042133333333,-2.05856
2.93122133333333,-2.06723
2.93202133333333,-2.07586
2.93282133333333,-2.08442
2.93362133333333,-2.09292
2.93442133333333,-2.10135
2.93522133333333,-2.10969
2.93602133333333,-2.11794
2.93682133333333,-2.12609
2.93762133333333,-2.13413
2.93842133333333,-2.14206
2.93922133333333,-2.14986
2.94002133333333,-2.15753
2.94082133333333,-2.16505
2.94162133333333,-2.17241
2.94242133333333,-2.17962
2.94322133333333,-2.18665
2.94402133333333,-2.19349
2.94482133333333,-2.20014
2.94562133333333,-2.20659
2.94642133333333,-2.21283
2.94722133333333,-2.21885
2.94802133333333,-2.22463
2.94882133333333,-2.23017
2.94962133333333,-2.23547
2.95042133333333,-2.2405
2.95122133333333,-2.24526
2.95202133333333,-2.24974
2.95282133333333,-2.25393
2.95362133333333,-2.25781
2.95442133333333,-2.26138
2.95522133333333,-2.26463
2.95602133333333,-2.26754
2.95682133333333,-2.27011
2.95762133333333,-2.27231
2.95842133333333,-2.27414
2.95922133333333,-2.27558
2.96002133333333,-2.27661
2.96082133333333,-2.27723
2.96162133333333,-2.27741
2.96242133333333,-2.27714
2.96322133333333,-2.2764
2.96402133333333,-2.27518
2.96482133333333,-2.27346
2.96562133333333,-2.27121
2.96642133333333,-2.26844
2.96722133333333,-2.2651
2.96802133333333,-2.26119
2.96882133333333,-2.25669
2.96962133333333,-2.25158
2.97042133333333,-2.24583
2.97122133333333,-2.23943
2.97202133333333,-2.23236
2.97282133333333,-2.2246
2.97362133333333,-2.21612
2.97442133333333,-2.20691
2.97522133333333,-2.19694
2.97602133333333,-2.18621
2.97682133333333,-2.17467
2.97762133333333,-2.16233
2.97842133333333,-2.14915
2.97922133333333,-2.13511
2.98002133333333,-2.12021
2.98082133333333,-2.10442
2.98162133333333,-2.08773
2.98242133333333,-2.07011
2.98322133333333,-2.05156
2.98402133333333,-2.03207
2.98482133333333,-2.01161
2.98562133333333,-1.99018
2.98642133333333,-1.96776
2.98722133333333,-1.94435
2.98802133333333,-1.91994
2.98882133333333,-1.89452
2.98962133333333,-1.86808
2.99042133333333,-1.84062
2.99122133333333,-1.81213
2.99202133333333,-1.78262
2.99282133333333,-1.75207
2.99362133333333,-1.7205
2.99442133333333,-1.6879
2.99522133333333,-1.65427
2.99602133333333,-1.61962
2.99682133333333,-1.58396
2.99762133333333,-1.54729
2.99842133333333,-1.50962
2.99922133333333,-1.47097
3.00002133333333,-1.43135
3.00082133333333,-1.39078
3.00162133333333,-1.34926
3.00242133333333,-1.30681
3.00322133333333,-1.26346
3.00402133333333,-1.21923
3.00482133333333,-1.17413
3.00562133333333,-1.1282
3.00642133333333,-1.08145
3.00722133333333,-1.03392
3.00802133333333,-0.98562
3.00882133333333,-0.9366
3.00962133333333,-0.88687
3.01042133333333,-0.83648
3.01122133333333,-0.78544
3.01202133333333,-0.73381
3.01282133333333,-0.6816
3.01362133333333,-0.62885
3.01442133333333,-0.57561
3.01522133333333,-0.5219
3.01602133333333,-0.46776
3.01682133333333,-0.41324
3.01762133333333,-0.35837
3.01842133333333,-0.30319
3.01922133333333,-0.24773
3.02002133333333,-0.19205
3.02082133333333,-0.13616
3.02162133333333,-0.08011
3.02242133333333,-0.02395
3.02322133333333,0.0323
3.02402133333333,0.0886
3.02482133333333,0.1449
3.02562133333333,0.20118
3.02642133333333,0.25739
3.02722133333333,0.3135
3.02802133333333,0.36948
3.02882133333333,0.42528
3.02962133333333,0.48087
3.03042133333333,0.53623
3.03122133333333,0.5913
3.03202133333333,0.64607
3.03282133333333,0.70049
3.03362133333333,0.75454
3.03442133333333,0.80818
3.03522133333333,0.86138
3.03602133333333,0.91411
3.03682133333333,0.96633
3.03762133333333,1.01802
3.03842133333333,1.06915
3.03922133333333,1.11969
3.04002133333333,1.16961
3.04082133333333,1.21888
3.04162133333333,1.26748
3.04242133333333,1.31538
3.04322133333333,1.36256
3.04402133333333,1.409
3.04482133333333,1.45467
3.04562133333333,1.49956
3.04642133333333,1.54364
3.04722133333333,1.58691
3.04802133333333,1.62934
3.04882133333333,1.67092
3.04962133333333,1.71163
3.05042133333333,1.75147
3.05122133333333,1.79043
3.05202133333333,1.82848
3.05282133333333,1.86563
3.05362133333333,1.90187
3.05442133333333,1.93719
3.05522133333333,1.97158
3.05602133333333,2.00505
3.05682133333333,2.03758
3.05762133333333,2.06918
3.05842133333333,2.09985
3.05922133333333,2.12958
3.06002133333333,2.15837
3.06082133333333,2.18622
3.06162133333333,2.21314
3.06242133333333,2.23913
3.06322133333333,2.26419
3.06402133333333,2.28833
3.06482133333333,2.31155
3.06562133333333,2.33385
3.06642133333333,2.35525
3.06722133333333,2.37574
3.06802133333333,2.39534
3.06882133333333,2.41404
3.06962133333333,2.43187
3.07042133333333,2.44882
3.07122133333333,2.46491
3.07202133333333,2.48014
3.07282133333333,2.49453
3.07362133333333,2.50809
3.07442133333333,2.52082
3.07522133333333,2.53274
3.07602133333333,2.54386
3.07682133333333,2.55419
3.07762133333333,2.56375
3.07842133333333,2.57254
3.07922133333333,2.58058
3.08002133333333,2.58788
3.08082133333333,2.59445
3.08162133333333,2.60031
3.08242133333333,2.60547
3.08322133333333,2.60994
3.08402133333333,2.61374
3.08482133333333,2.61687
3.08562133333333,2.61936
3.08642133333333,2.62121
3.08722133333333,2.62243
3.08802133333333,2.62305
3.08882133333333,2.62306
3.08962133333333,2.62248
3.09042133333333,2.62133
3.09122133333333,2.6196
3.09202133333333,2.61732
3.09282133333333,2.61449
3.09362133333333,2.61112
3.09442133333333,2.60723
3.09522133333333,2.60282
3.09602133333333,2.5979
3.09682133333333,2.59249
3.09762133333333,2.58659
3.09842133333333,2.58023
3.09922133333333,2.5734
3.10002133333333,2.56612
3.10082133333333,2.5584
3.10162133333333,2.55026
3.10242133333333,2.5417
3.10322133333333,2.53273
3.10402133333333,2.52337
3.10482133333333,2.51362
3.10562133333333,2.5035
3.10642133333333,2.49302
3.10722133333333,2.48218
3.10802133333333,2.47101
3.10882133333333,2.45952
3.10962133333333,2.4477
3.11042133333333,2.43559
3.11122133333333,2.42318
3.11202133333333,2.41049
3.11282133333333,2.39754
3.11362133333333,2.38432
3.11442133333333,2.37087
3.11522133333333,2.35718
3.11602133333333,2.34328
3.11682133333333,2.32917
3.11762133333333,2.31486
3.11842133333333,2.30037
3.11922133333333,2.2857
3.12002133333333,2.27088
3.12082133333333,2.25591
3.12162133333333,2.2408
3.12242133333333,2.22557
3.12322133333333,2.21023
3.12402133333333,2.19478
3.12482133333333,2.17925
3.12562133333333,2.16365
3.12642133333333,2.14799
3.12722133333333,2.13227
3.12802133333333,2.11651
3.12882133333333,2.10073
3.12962133333333,2.08492
3.13042133333333,2.06911
3.13122133333333,2.0533
3.13202133333333,2.03749
3.13282133333333,2.02171
3.13362133333333,2.00596
3.13442133333333,1.99024
3.13522133333333,1.97457
3.13602133333333,1.95895
3.13682133333333,1.94338
3.13762133333333,1.92788
3.13842133333333,1.91245
3.13922133333333,1.89709
3.14002133333333,1.88181
3.14082133333333,1.8666
3.14162133333333,1.85149
3.14242133333333,1.83645
3.14322133333333,1.82151
3.14402133333333,1.80666
3.14482133333333,1.7919
3.14562133333333,1.77724
3.14642133333333,1.76268
3.14722133333333,1.74823
3.14802133333333,1.73387
3.14882133333333,1.71962
3.14962133333333,1.70547
3.15042133333333,1.69143
3.15122133333333,1.6775
3.15202133333333,1.66367
3.15282133333333,1.64996
3.15362133333333,1.63635
3.15442133333333,1.62284
3.15522133333333,1.60944
3.15602133333333,1.59615
3.15682133333333,1.58296
3.15762133333333,1.56986
3.15842133333333,1.55687
3.15922133333333,1.54397
3.16002133333333,1.53117
3.16082133333333,1.51845
3.16162133333333,1.50583
3.16242133333333,1.49328
3.16322133333333,1.48082
3.16402133333333,1.46844
3.16482133333333,1.45612
3.16562133333333,1.44387
3.16642133333333,1.43169
3.16722133333333,1.41957
3.16802133333333,1.4075
3.16882133333333,1.39548
3.16962133333333,1.38351
3.17042133333333,1.37158
3.17122133333333,1.35968
3.17202133333333,1.34781
3.17282133333333,1.33597
3.17362133333333,1.32414
3.17442133333333,1.31233
3.17522133333333,1.30053
3.17602133333333,1.28872
3.17682133333333,1.27691
3.17762133333333,1.26509
3.17842133333333,1.25325
3.17922133333333,1.2414
3.18002133333333,1.22951
3.18082133333333,1.21758
3.18162133333333,1.20562
3.18242133333333,1.1936
3.18322133333333,1.18152
3.18402133333333,1.16938
3.18482133333333,1.15716
3.18562133333333,1.14487
3.18642133333333,1.1325
3.18722133333333,1.12003
3.18802133333333,1.10748
3.18882133333333,1.09483
3.18962133333333,1.08208
3.19042133333333,1.06923
3.19122133333333,1.05628
3.19202133333333,1.04322
3.19282133333333,1.03006
3.19362133333333,1.01679
3.19442133333333,1.00342
3.19522133333333,0.98995
3.19602133333333,0.97637
3.19682133333333,0.9627
3.19762133333333,0.94894
3.19842133333333,0.9351
3.19922133333333,0.92117
3.20002133333333,0.90716
3.20082133333333,0.89309
3.20162133333333,0.87894
3.20242133333333,0.86473
3.20322133333333,0.85047
3.20402133333333,0.83615
3.20482133333333,0.82179
3.20562133333333,0.80738
3.20642133333333,0.79295
3.20722133333333,0.77848
3.20802133333333,0.76399
3.20882133333333,0.74949
3.20962133333333,0.73499
3.21042133333333,0.72048
3.21122133333333,0.70598
3.21202133333333,0.69151
3.21282133333333,0.67706
3.21362133333333,0.66264
3.21442133333333,0.64827
3.21522133333333,0.63395
3.21602133333333,0.61969
3.21682133333333,0.60551
3.21762133333333,0.5914
3.21842133333333,0.57738
3.21922133333333,0.56345
3.22002133333333,0.54963
3.22082133333333,0.53591
3.22162133333333,0.52232
3.22242133333333,0.50885
3.22322133333333,0.49551
3.22402133333333,0.48231
3.22482133333333,0.46926
3.22562133333333,0.45637
3.22642133333333,0.44365
3.22722133333333,0.43109
3.22802133333333,0.41872
3.22882133333333,0.40653
3.22962133333333,0.39454
3.23042133333333,0.38275
3.23122133333333,0.37118
3.23202133333333,0.35982
3.23282133333333,0.34868
3.23362133333333,0.33776
3.23442133333333,0.32708
3.23522133333333,0.31664
3.23602133333333,0.30643
3.23682133333333,0.29648
3.23762133333333,0.28677
3.23842133333333,0.27732
3.23922133333333,0.26813
3.24002133333333,0.25921
3.24082133333333,0.25056
3.24162133333333,0.24218
3.24242133333333,0.23407
3.24322133333333,0.22625
3.24402133333333,0.21872
3.24482133333333,0.21147
3.24562133333333,0.20451
3.24642133333333,0.19785
3.24722133333333,0.19148
3.24802133333333,0.1854
3.24882133333333,0.17962
3.24962133333333,0.17413
3.25042133333333,0.16892
3.25122133333333,0.16402
3.25202133333333,0.1594
3.25282133333333,0.15507
3.25362133333333,0.15103
3.25442133333333,0.14728
3.25522133333333,0.14381
3.25602133333333,0.14064
3.25682133333333,0.13776
3.25762133333333,0.13516
3.25842133333333,0.13285
3.25922133333333,0.13083
3.26002133333333,0.12909
3.26082133333333,0.12764
3.26162133333333,0.12648
3.26242133333333,0.1256
3.26322133333333,0.125
3.26402133333333,0.12469
3.26482133333333,0.12466
3.26562133333333,0.12492
3.26642133333333,0.12545
3.26722133333333,0.12626
3.26802133333333,0.12735
3.26882133333333,0.1287
3.26962133333333,0.13033
3.27042133333333,0.13222
3.27122133333333,0.13436
3.27202133333333,0.13677
3.27282133333333,0.13942
3.27362133333333,0.14232
3.27442133333333,0.14546
3.27522133333333,0.14884
3.27602133333333,0.15245
3.27682133333333,0.15628
3.27762133333333,0.16032
3.27842133333333,0.16459
3.27922133333333,0.16906
3.28002133333333,0.17373
3.28082133333333,0.1786
3.28162133333333,0.18366
3.28242133333333,0.18892
3.28322133333333,0.19435
3.28402133333333,0.19996
3.28482133333333,0.20574
3.28562133333333,0.21169
3.28642133333333,0.2178
3.28722133333333,0.22406
3.28802133333333,0.23047
3.28882133333333,0.23702
3.28962133333333,0.2437
3.29042133333333,0.25051
3.29122133333333,0.25743
3.29202133333333,0.26447
3.29282133333333,0.27161
3.29362133333333,0.27885
3.29442133333333,0.28618
3.29522133333333,0.29358
3.29602133333333,0.30106
3.29682133333333,0.30861
3.29762133333333,0.31622
3.29842133333333,0.32388
3.29922133333333,0.33158
3.30002133333333,0.33932
3.30082133333333,0.3471
3.30162133333333,0.3549
3.30242133333333,0.36272
3.30322133333333,0.37056
3.30402133333333,0.3784
3.30482133333333,0.38625
3.30562133333333,0.39409
3.30642133333333,0.40193
3.30722133333333,0.40975
3.30802133333333,0.41755
3.30882133333333,0.42533
3.30962133333333,0.43308
3.31042133333333,0.4408
3.31122133333333,0.44849
3.31202133333333,0.45613
3.31282133333333,0.46374
3.31362133333333,0.47129
3.31442133333333,0.4788
3.31522133333333,0.48625
3.31602133333333,0.49364
3.31682133333333,0.50096
3.31762133333333,0.50822
3.31842133333333,0.51539
3.31922133333333,0.52249
3.32002133333333,0.5295
3.32082133333333,0.53641
3.32162133333333,0.54323
3.32242133333333,0.54995
3.32322133333333,0.55657
3.32402133333333,0.56307
3.32482133333333,0.56945
3.32562133333333,0.57572
3.32642133333333,0.58186
3.32722133333333,0.58787
3.32802133333333,0.59374
3.32882133333333,0.59948
3.32962133333333,0.60507
3.33042133333333,0.61052
3.33122133333333,0.61582
3.33202133333333,0.62097
3.33282133333333,0.62597
3.33362133333333,0.63081
3.33442133333333,0.6355
3.33522133333333,0.64002
3.33602133333333,0.64439
3.33682133333333,0.64859
3.33762133333333,0.65263
3.33842133333333,0.65651
3.33922133333333,0.66022
3.34002133333333,0.66376
3.34082133333333,0.66714
3.34162133333333,0.67034
3.34242133333333,0.67337
3.34322133333333,0.67624
3.34402133333333,0.67894
3.34482133333333,0.68147
3.34562133333333,0.68383
3.34642133333333,0.68603
3.34722133333333,0.68806
3.34802133333333,0.68993
3.34882133333333,0.69164
3.34962133333333,0.69319
3.35042133333333,0.69459
3.35122133333333,0.69582
3.35202133333333,0.69689
3.35282133333333,0.69781
3.35362133333333,0.69857
3.35442133333333,0.69917
3.35522133333333,0.69962
3.35602133333333,0.69992
3.35682133333333,0.70006
3.35762133333333,0.70005
3.35842133333333,0.69988
3.35922133333333,0.69956
3.36002133333333,0.69909
3.36082133333333,0.69847
3.36162133333333,0.69769
3.36242133333333,0.69675
3.36322133333333,0.69566
3.36402133333333,0.69442
3.36482133333333,0.69302
3.36562133333333,0.69146
3.36642133333333,0.68975
3.36722133333333,0.68788
3.36802133333333,0.68586
3.36882133333333,0.68367
3.36962133333333,0.68132
3.37042133333333,0.67881
3.37122133333333,0.67613
3.37202133333333,0.67329
3.37282133333333,0.67027
3.37362133333333,0.66709
3.37442133333333,0.66373
3.37522133333333,0.66019
3.37602133333333,0.65648
3.37682133333333,0.65259
3.37762133333333,0.64852
3.37842133333333,0.64427
3.37922133333333,0.63983
3.38002133333333,0.63521
3.38082133333333,0.6304
3.38162133333333,0.62541
3.38242133333333,0.62024
3.38322133333333,0.61488
3.38402133333333,0.60935
3.38482133333333,0.60363
3.38562133333333,0.59772
3.38642133333333,0.59164
3.38722133333333,0.58537
3.38802133333333,0.57893
3.38882133333333,0.5723
3.38962133333333,0.56549
3.39042133333333,0.5585
3.39122133333333,0.55133
3.39202133333333,0.54398
3.39282133333333,0.53646
3.39362133333333,0.52877
3.39442133333333,0.5209
3.39522133333333,0.51288
3.39602133333333,0.50468
3.39682133333333,0.49633
3.39762133333333,0.48783
3.39842133333333,0.47917
3.39922133333333,0.47036
3.40002133333333,0.46141
3.40082133333333,0.45231
3.40162133333333,0.44308
3.40242133333333,0.43372
3.40322133333333,0.42422
3.40402133333333,0.4146
3.40482133333333,0.40486
3.40562133333333,0.395
3.40642133333333,0.38502
3.40722133333333,0.37492
3.40802133333333,0.36471
3.40882133333333,0.35439
3.40962133333333,0.34396
3.41042133333333,0.33343
3.41122133333333,0.32279
3.41202133333333,0.31205
3.41282133333333,0.30121
3.41362133333333,0.29027
3.41442133333333,0.27924
3.41522133333333,0.26812
3.41602133333333,0.25692
3.41682133333333,0.24562
3.41762133333333,0.23425
3.41842133333333,0.2228
3.41922133333333,0.21127
3.42002133333333,0.19967
3.42082133333333,0.188
3.42162133333333,0.17627
3.42242133333333,0.16447
3.42322133333333,0.15261
3.42402133333333,0.1407
3.42482133333333,0.12874
3.42562133333333,0.11673
3.42642133333333,0.10467
3.42722133333333,0.09257
3.42802133333333,0.08043
3.42882133333333,0.06826
3.42962133333333,0.05604
3.43042133333333,0.0438
3.43122133333333,0.03152
3.43202133333333,0.01921
3.43282133333333,0.00686
3.43362133333333,-0.00552
3.43442133333333,-0.01794
3.43522133333333,-0.03039
3.43602133333333,-0.04287
3.43682133333333,-0.05538
3.43762133333333,-0.06793
3.43842133333333,-0.08051
3.43922133333333,-0.09312
3.44002133333333,-0.10575
3.44082133333333,-0.11841
3.44162133333333,-0.1311
3.44242133333333,-0.14379
3.44322133333333,-0.15651
3.44402133333333,-0.16923
3.44482133333333,-0.18195
3.44562133333333,-0.19467
3.44642133333333,-0.20739
3.44722133333333,-0.2201
3.44802133333333,-0.23279
3.44882133333333,-0.24547
3.44962133333333,-0.25812
3.45042133333333,-0.27075
3.45122133333333,-0.28334
3.45202133333333,-0.29589
3.45282133333333,-0.30841
3.45362133333333,-0.32087
3.45442133333333,-0.33329
3.45522133333333,-0.34566
3.45602133333333,-0.35796
3.45682133333333,-0.37021
3.45762133333333,-0.3824
3.45842133333333,-0.39451
3.45922133333333,-0.40656
3.46002133333333,-0.41854
3.46082133333333,-0.43045
3.46162133333333,-0.44227
3.46242133333333,-0.45402
3.46322133333333,-0.46569
3.46402133333333,-0.47727
3.46482133333333,-0.48877
3.46562133333333,-0.50018
3.46642133333333,-0.5115
3.46722133333333,-0.52274
3.46802133333333,-0.53388
3.46882133333333,-0.54493
3.46962133333333,-0.5559
3.47042133333333,-0.56677
3.47122133333333,-0.57754
3.47202133333333,-0.58823
3.47282133333333,-0.59883
3.47362133333333,-0.60934
3.47442133333333,-0.61977
3.47522133333333,-0.63011
3.47602133333333,-0.64037
3.47682133333333,-0.65055
3.47762133333333,-0.66065
3.47842133333333,-0.67067
3.47922133333333,-0.68061
3.48002133333333,-0.69048
3.48082133333333,-0.70029
3.48162133333333,-0.71002
3.48242133333333,-0.71969
3.48322133333333,-0.72929
3.48402133333333,-0.73883
3.48482133333333,-0.74831
3.48562133333333,-0.75773
3.48642133333333,-0.7671
3.48722133333333,-0.77641
3.48802133333333,-0.78567
3.48882133333333,-0.79488
3.48962133333333,-0.80403
3.49042133333333,-0.81314
3.49122133333333,-0.82221
3.49202133333333,-0.83123
3.49282133333333,-0.84021
3.49362133333333,-0.84915
3.49442133333333,-0.85804
3.49522133333333,-0.8669
3.49602133333333,-0.87573
3.49682133333333,-0.88451
3.49762133333333,-0.89326
3.49842133333333,-0.90197
3.49922133333333,-0.91064
3.50002133333333,-0.91927
3.50082133333333,-0.92787
3.50162133333333,-0.93643
3.50242133333333,-0.94496
3.50322133333333,-0.95345
3.50402133333333,-0.9619
3.50482133333333,-0.97031
3.50562133333333,-0.97869
3.50642133333333,-0.98703
3.50722133333333,-0.99533
3.50802133333333,-1.00359
3.50882133333333,-1.01181
3.50962133333333,-1.01999
3.51042133333333,-1.02812
3.51122133333333,-1.03621
3.51202133333333,-1.04424
3.51282133333333,-1.05223
3.51362133333333,-1.06016
3.51442133333333,-1.06804
3.51522133333333,-1.07586
3.51602133333333,-1.08363
3.51682133333333,-1.09134
3.51762133333333,-1.09899
3.51842133333333,-1.10659
3.51922133333333,-1.11413
3.52002133333333,-1.12161
3.52082133333333,-1.12904
3.52162133333333,-1.13641
3.52242133333333,-1.14373
3.52322133333333,-1.151
3.52402133333333,-1.15821
3.52482133333333,-1.16537
3.52562133333333,-1.17248
3.52642133333333,-1.17953
3.52722133333333,-1.18652
3.52802133333333,-1.19346
3.52882133333333,-1.20035
3.52962133333333,-1.20717
3.53042133333333,-1.21395
3.53122133333333,-1.22066
3.53202133333333,-1.22732
3.53282133333333,-1.23392
3.53362133333333,-1.24047
3.53442133333333,-1.24696
3.53522133333333,-1.25338
3.53602133333333,-1.25975
3.53682133333333,-1.26606
3.53762133333333,-1.27231
3.53842133333333,-1.2785
3.53922133333333,-1.28463
3.54002133333333,-1.2907
3.54082133333333,-1.29671
3.54162133333333,-1.30267
3.54242133333333,-1.30857
3.54322133333333,-1.31441
3.54402133333333,-1.32019
3.54482133333333,-1.32591
3.54562133333333,-1.33158
3.54642133333333,-1.33719
3.54722133333333,-1.34274
3.54802133333333,-1.34824
3.54882133333333,-1.35368
3.54962133333333,-1.35907
3.55042133333333,-1.36441
3.55122133333333,-1.36969
3.55202133333333,-1.37492
3.55282133333333,-1.3801
3.55362133333333,-1.38524
3.55442133333333,-1.39032
3.55522133333333,-1.39536
3.55602133333333,-1.40036
3.55682133333333,-1.40531
3.55762133333333,-1.41021
3.55842133333333,-1.41507
3.55922133333333,-1.41989
3.56002133333333,-1.42466
3.56082133333333,-1.42939
3.56162133333333,-1.43408
3.56242133333333,-1.43872
3.56322133333333,-1.44331
3.56402133333333,-1.44786
3.56482133333333,-1.45237
3.56562133333333,-1.45683
3.56642133333333,-1.46125
3.56722133333333,-1.46563
3.56802133333333,-1.46997
3.56882133333333,-1.47427
3.56962133333333,-1.47853
3.57042133333333,-1.48275
3.57122133333333,-1.48693
3.57202133333333,-1.49108
3.57282133333333,-1.4952
3.57362133333333,-1.49929
3.57442133333333,-1.50334
3.57522133333333,-1.50737
3.57602133333333,-1.51138
3.57682133333333,-1.51535
3.57762133333333,-1.51931
3.57842133333333,-1.52325
3.57922133333333,-1.52717
3.58002133333333,-1.53107
3.58082133333333,-1.53497
3.58162133333333,-1.53886
3.58242133333333,-1.54275
3.58322133333333,-1.54664
3.58402133333333,-1.55054
3.58482133333333,-1.55444
3.58562133333333,-1.55837
3.58642133333333,-1.56232
3.58722133333333,-1.56629
3.58802133333333,-1.57029
3.58882133333333,-1.57433
3.58962133333333,-1.57841
3.59042133333333,-1.58254
3.59122133333333,-1.58671
3.59202133333333,-1.59094
3.59282133333333,-1.59522
3.59362133333333,-1.59956
3.59442133333333,-1.60397
3.59522133333333,-1.60844
3.59602133333333,-1.61299
3.59682133333333,-1.61761
3.59762133333333,-1.62232
3.59842133333333,-1.6271
3.59922133333333,-1.63197
3.60002133333333,-1.63693
3.60082133333333,-1.64197
3.60162133333333,-1.6471
3.60242133333333,-1.65232
3.60322133333333,-1.65763
3.60402133333333,-1.66304
3.60482133333333,-1.66855
3.60562133333333,-1.67415
3.60642133333333,-1.67984
3.60722133333333,-1.68562
3.60802133333333,-1.6915
3.60882133333333,-1.69747
3.60962133333333,-1.70352
3.61042133333333,-1.70966
3.61122133333333,-1.71589
3.61202133333333,-1.7222
3.61282133333333,-1.72859
3.61362133333333,-1.73505
3.61442133333333,-1.7416
3.61522133333333,-1.74822
3.61602133333333,-1.7549
3.61682133333333,-1.76166
3.61762133333333,-1.76847
3.61842133333333,-1.77534
3.61922133333333,-1.78227
3.62002133333333,-1.78924
3.62082133333333,-1.79626
3.62162133333333,-1.80332
3.62242133333333,-1.8104
3.62322133333333,-1.81752
3.62402133333333,-1.82466
3.62482133333333,-1.83181
3.62562133333333,-1.83898
3.62642133333333,-1.84616
3.62722133333333,-1.85333
3.62802133333333,-1.8605
3.62882133333333,-1.86767
3.62962133333333,-1.87481
3.63042133333333,-1.88193
3.63122133333333,-1.88903
3.63202133333333,-1.8961
3.63282133333333,-1.90314
3.63362133333333,-1.91014
3.63442133333333,-1.91709
3.63522133333333,-1.92401
3.63602133333333,-1.93087
3.63682133333333,-1.93768
3.63762133333333,-1.94443
3.63842133333333,-1.95112
3.63922133333333,-1.95773
3.64002133333333,-1.96427
3.64082133333333,-1.97073
3.64162133333333,-1.97709
3.64242133333333,-1.98335
3.64322133333333,-1.98949
3.64402133333333,-1.99552
3.64482133333333,-2.00142
3.64562133333333,-2.00717
3.64642133333333,-2.01278
3.64722133333333,-2.01822
3.64802133333333,-2.02348
3.64882133333333,-2.02855
3.64962133333333,-2.03343
3.65042133333333,-2.03808
3.65122133333333,-2.04251
3.65202133333333,-2.04669
3.65282133333333,-2.05061
3.65362133333333,-2.05426
3.65442133333333,-2.05762
3.65522133333333,-2.06069
3.65602133333333,-2.06343
3.65682133333333,-2.06585
3.65762133333333,-2.06792
3.65842133333333,-2.06963
3.65922133333333,-2.07097
3.66002133333333,-2.07192
3.66082133333333,-2.07246
3.66162133333333,-2.07258
3.66242133333333,-2.07227
3.66322133333333,-2.0715
3.66402133333333,-2.07026
3.66482133333333,-2.06854
3.66562133333333,-2.06631
3.66642133333333,-2.06356
3.66722133333333,-2.06027
3.66802133333333,-2.05643
3.66882133333333,-2.05201
3.66962133333333,-2.047
3.67042133333333,-2.04139
3.67122133333333,-2.03515
3.67202133333333,-2.02826
3.67282133333333,-2.02071
3.67362133333333,-2.01248
3.67442133333333,-2.00355
3.67522133333333,-1.99391
3.67602133333333,-1.98354
3.67682133333333,-1.97242
3.67762133333333,-1.96054
3.67842133333333,-1.94788
3.67922133333333,-1.93443
3.68002133333333,-1.92017
3.68082133333333,-1.90508
3.68162133333333,-1.88916
3.68242133333333,-1.87238
3.68322133333333,-1.85474
3.68402133333333,-1.83623
3.68482133333333,-1.81682
3.68562133333333,-1.79651
3.68642133333333,-1.7753
3.68722133333333,-1.75316
3.68802133333333,-1.7301
3.68882133333333,-1.7061
3.68962133333333,-1.68117
3.69042133333333,-1.6553
3.69122133333333,-1.62848
3.69202133333333,-1.60071
3.69282133333333,-1.572
3.69362133333333,-1.54234
3.69442133333333,-1.51174
3.69522133333333,-1.4802
3.69602133333333,-1.44773
3.69682133333333,-1.41434
3.69762133333333,-1.38004
3.69842133333333,-1.34483
3.69922133333333,-1.30872
3.70002133333333,-1.27174
3.70082133333333,-1.23389
3.70162133333333,-1.19519
3.70242133333333,-1.15565
3.70322133333333,-1.11529
3.70402133333333,-1.07413
3.70482133333333,-1.03219
3.70562133333333,-0.9895
3.70642133333333,-0.94606
3.70722133333333,-0.90192
3.70802133333333,-0.85709
3.70882133333333,-0.81161
3.70962133333333,-0.76549
3.71042133333333,-0.71877
3.71122133333333,-0.67147
3.71202133333333,-0.62364
3.71282133333333,-0.5753
3.71362133333333,-0.52648
3.71442133333333,-0.47723
3.71522133333333,-0.42757
3.71602133333333,-0.37755
3.71682133333333,-0.32718
3.71762133333333,-0.27653
3.71842133333333,-0.22561
3.71922133333333,-0.17446
3.72002133333333,-0.12312
3.72082133333333,-0.07164
3.72162133333333,-0.02003
3.72242133333333,0.03165
3.72322133333333,0.08336
3.72402133333333,0.13509
3.72482133333333,0.18677
3.72562133333333,0.23838
3.72642133333333,0.28988
3.72722133333333,0.34124
3.72802133333333,0.39241
3.72882133333333,0.44337
3.72962133333333,0.49408
3.73042133333333,0.5445
3.73122133333333,0.5946
3.73202133333333,0.64436
3.73282133333333,0.69372
3.73362133333333,0.74268
3.73442133333333,0.79119
3.73522133333333,0.83922
3.73602133333333,0.88674
3.73682133333333,0.93373
3.73762133333333,0.98016
3.73842133333333,1.026
3.73922133333333,1.07123
3.74002133333333,1.11582
3.74082133333333,1.15975
3.74162133333333,1.203
3.74242133333333,1.24555
3.74322133333333,1.28737
3.74402133333333,1.32844
3.74482133333333,1.36876
3.74562133333333,1.40829
3.74642133333333,1.44703
3.74722133333333,1.48496
3.74802133333333,1.52206
3.74882133333333,1.55832
3.74962133333333,1.59373
3.75042133333333,1.62828
3.75122133333333,1.66196
3.75202133333333,1.69475
3.75282133333333,1.72665
3.75362133333333,1.75766
3.75442133333333,1.78777
3.75522133333333,1.81698
3.75602133333333,1.84528
3.75682133333333,1.87267
3.75762133333333,1.89916
3.75842133333333,1.92473
3.75922133333333,1.9494
3.76002133333333,1.97317
3.76082133333333,1.99603
3.76162133333333,2.01799
3.76242133333333,2.03906
3.76322133333333,2.05924
3.76402133333333,2.07854
3.76482133333333,2.09697
3.76562133333333,2.11452
3.76642133333333,2.13122
3.76722133333333,2.14707
3.76802133333333,2.16208
3.76882133333333,2.17625
3.76962133333333,2.18961
3.77042133333333,2.20216
3.77122133333333,2.21391
3.77202133333333,2.22487
3.77282133333333,2.23505
3.77362133333333,2.24448
3.77442133333333,2.25315
3.77522133333333,2.26108
3.77602133333333,2.26828
3.77682133333333,2.27476
3.77762133333333,2.28054
3.77842133333333,2.28563
3.77922133333333,2.29004
3.78002133333333,2.29379
3.78082133333333,2.29688
3.78162133333333,2.29933
3.78242133333333,2.30116
3.78322133333333,2.30236
3.78402133333333,2.30296
3.78482133333333,2.30296
3.78562133333333,2.30237
3.78642133333333,2.3012
3.78722133333333,2.29947
3.78802133333333,2.29718
3.78882133333333,2.29434
3.78962133333333,2.29096
3.79042133333333,2.28704
3.79122133333333,2.28261
3.79202133333333,2.27766
3.79282133333333,2.27221
3.79362133333333,2.26626
3.79442133333333,2.25983
3.79522133333333,2.25291
3.79602133333333,2.24554
3.79682133333333,2.2377
3.79762133333333,2.22941
3.79842133333333,2.22069
3.79922133333333,2.21154
3.80002133333333,2.20197
3.80082133333333,2.19199
3.80162133333333,2.18161
3.80242133333333,2.17084
3.80322133333333,2.15969
3.80402133333333,2.14817
3.80482133333333,2.13629
3.80562133333333,2.12405
3.80642133333333,2.11147
3.80722133333333,2.09856
3.80802133333333,2.08532
3.80882133333333,2.07177
3.80962133333333,2.05792
3.81042133333333,2.04378
3.81122133333333,2.02936
3.81202133333333,2.01467
3.81282133333333,1.99972
3.81362133333333,1.98452
3.81442133333333,1.96908
3.81522133333333,1.95342
3.81602133333333,1.93755
3.81682133333333,1.92147
3.81762133333333,1.90521
3.81842133333333,1.88876
3.81922133333333,1.87215
3.82002133333333,1.85538
3.82082133333333,1.83847
3.82162133333333,1.82143
3.82242133333333,1.80427
3.82322133333333,1.78701
3.82402133333333,1.76966
3.82482133333333,1.75222
3.82562133333333,1.73472
3.82642133333333,1.71715
3.82722133333333,1.69955
3.82802133333333,1.68191
3.82882133333333,1.66425
3.82962133333333,1.64658
3.83042133333333,1.62891
3.83122133333333,1.61126
3.83202133333333,1.59362
3.83282133333333,1.57602
3.83362133333333,1.55847
3.83442133333333,1.54096
3.83522133333333,1.52353
3.83602133333333,1.50616
3.83682133333333,1.48887
3.83762133333333,1.47168
3.83842133333333,1.45458
3.83922133333333,1.43759
3.84002133333333,1.42072
3.84082133333333,1.40396
3.84162133333333,1.38734
3.84242133333333,1.37085
3.84322133333333,1.35449
3.84402133333333,1.33829
3.84482133333333,1.32223
3.84562133333333,1.30632
3.84642133333333,1.29056
3.84722133333333,1.27496
3.84802133333333,1.25951
3.84882133333333,1.24422
3.84962133333333,1.22909
3.85042133333333,1.21411
3.85122133333333,1.19929
3.85202133333333,1.18462
3.85282133333333,1.17011
3.85362133333333,1.15575
3.85442133333333,1.14155
3.85522133333333,1.12749
3.85602133333333,1.11358
3.85682133333333,1.09981
3.85762133333333,1.08618
3.85842133333333,1.07268
3.85922133333333,1.05931
3.86002133333333,1.04607
3.86082133333333,1.03294
3.86162133333333,1.01993
3.86242133333333,1.00701
3.86322133333333,0.9942
3.86402133333333,0.98147
3.86482133333333,0.96883
3.86562133333333,0.95626
3.86642133333333,0.94375
3.86722133333333,0.93131
3.86802133333333,0.91892
3.86882133333333,0.90658
3.86962133333333,0.89429
3.87042133333333,0.88203
3.87122133333333,0.8698
3.87202133333333,0.8576
3.87282133333333,0.84542
3.87362133333333,0.83325
3.87442133333333,0.8211
3.87522133333333,0.80896
3.87602133333333,0.79683
3.87682133333333,0.7847
3.87762133333333,0.77258
3.87842133333333,0.76046
3.87922133333333,0.74833
3.88002133333333,0.7362
3.88082133333333,0.72405
3.88162133333333,0.7119
3.88242133333333,0.69974
3.88322133333333,0.68756
3.88402133333333,0.67536
3.88482133333333,0.66314
3.88562133333333,0.6509
3.88642133333333,0.63864
3.88722133333333,0.62636
3.88802133333333,0.61405
3.88882133333333,0.60171
3.88962133333333,0.58936
3.89042133333333,0.57697
3.89122133333333,0.56457
3.89202133333333,0.55213
3.89282133333333,0.53968
3.89362133333333,0.5272
3.89442133333333,0.5147
3.89522133333333,0.50218
3.89602133333333,0.48964
3.89682133333333,0.47708
3.89762133333333,0.46451
3.89842133333333,0.45192
3.89922133333333,0.43932
3.90002133333333,0.42671
3.90082133333333,0.41409
3.90162133333333,0.40146
3.90242133333333,0.38882
3.90322133333333,0.37619
3.90402133333333,0.36356
3.90482133333333,0.35093
3.90562133333333,0.33832
3.90642133333333,0.32572
3.90722133333333,0.31315
3.90802133333333,0.3006
3.90882133333333,0.28809
3.90962133333333,0.27562
3.91042133333333,0.2632
3.91122133333333,0.25083
3.91202133333333,0.23852
3.91282133333333,0.22629
3.91362133333333,0.21413
3.91442133333333,0.20206
3.91522133333333,0.19008
3.91602133333333,0.17821
3.91682133333333,0.16646
3.91762133333333,0.15483
3.91842133333333,0.14333
3.91922133333333,0.13197
3.92002133333333,0.12076
3.92082133333333,0.10972
3.92162133333333,0.09884
3.92242133333333,0.08815
3.92322133333333,0.07765
3.92402133333333,0.06735
3.92482133333333,0.05726
3.92562133333333,0.0474
3.92642133333333,0.03776
3.92722133333333,0.02836
3.92802133333333,0.01921
3.92882133333333,0.01031
3.92962133333333,0.00167
3.93042133333333,-0.0067
3.93122133333333,-0.01479
3.93202133333333,-0.0226
3.93282133333333,-0.03013
3.93362133333333,-0.03737
3.93442133333333,-0.04431
3.93522133333333,-0.05096
3.93602133333333,-0.05731
3.93682133333333,-0.06336
3.93762133333333,-0.06912
3.93842133333333,-0.07457
3.93922133333333,-0.07972
3.94002133333333,-0.08457
3.94082133333333,-0.08912
3.94162133333333,-0.09336
3.94242133333333,-0.09731
3.94322133333333,-0.10095
3.94402133333333,-0.1043
3.94482133333333,-0.10735
3.94562133333333,-0.11009
3.94642133333333,-0.11255
3.94722133333333,-0.1147
3.94802133333333,-0.11656
3.94882133333333,-0.11813
3.94962133333333,-0.11941
3.95042133333333,-0.1204
3.95122133333333,-0.12111
3.95202133333333,-0.12153
3.95282133333333,-0.12167
3.95362133333333,-0.12153
3.95442133333333,-0.12111
3.95522133333333,-0.12043
3.95602133333333,-0.11948
3.95682133333333,-0.11826
3.95762133333333,-0.11679
3.95842133333333,-0.11506
3.95922133333333,-0.11308
3.96002133333333,-0.11086
3.96082133333333,-0.1084
3.96162133333333,-0.10569
3.96242133333333,-0.10276
3.96322133333333,-0.09959
3.96402133333333,-0.09621
3.96482133333333,-0.0926
3.96562133333333,-0.08878
3.96642133333333,-0.08475
3.96722133333333,-0.08051
3.96802133333333,-0.07608
3.96882133333333,-0.07146
3.96962133333333,-0.06664
3.97042133333333,-0.06164
3.97122133333333,-0.05646
3.97202133333333,-0.05111
3.97282133333333,-0.04559
3.97362133333333,-0.0399
3.97442133333333,-0.03405
3.97522133333333,-0.02803
3.97602133333333,-0.02187
3.97682133333333,-0.01555
3.97762133333333,-0.00909
3.97842133333333,-0.00249
3.97922133333333,0.00426
3.98002133333333,0.01113
3.98082133333333,0.01814
3.98162133333333,0.02527
3.98242133333333,0.03252
3.98322133333333,0.03988
3.98402133333333,0.04735
3.98482133333333,0.05492
3.98562133333333,0.06259
3.98642133333333,0.07034
3.98722133333333,0.07817
3.98802133333333,0.08609
3.98882133333333,0.09407
3.98962133333333,0.10212
3.99042133333333,0.11024
3.99122133333333,0.11841
3.99202133333333,0.12663
3.99282133333333,0.13489
3.99362133333333,0.1432
3.99442133333333,0.15155
3.99522133333333,0.15993
3.99602133333333,0.16833
3.99682133333333,0.17677
3.99762133333333,0.18522
3.99842133333333,0.19369
3.99922133333333,0.20217
4.00002133333333,0.21066
4.00082133333333,0.21915
4.00162133333333,0.22765
4.00242133333333,0.23614
4.00322133333333,0.24461
4.00402133333333,0.25307
4.00482133333333,0.2615
4.00562133333333,0.26989
4.00642133333333,0.27824
4.00722133333333,0.28654
4.00802133333333,0.29478
4.00882133333333,0.30296
4.00962133333333,0.31106
4.01042133333333,0.31909
4.01122133333333,0.32703
4.01202133333333,0.33489
4.01282133333333,0.34265
4.01362133333333,0.35032
4.01442133333333,0.35788
4.01522133333333,0.36534
4.01602133333333,0.37269
4.01682133333333,0.37992
4.01762133333333,0.38704
4.01842133333333,0.39402
4.01922133333333,0.40089
4.02002133333333,0.40762
4.02082133333333,0.41422
4.02162133333333,0.42068
4.02242133333333,0.427
4.02322133333333,0.43317
4.02402133333333,0.4392
4.02482133333333,0.44509
4.02562133333333,0.45083
4.02642133333333,0.45641
4.02722133333333,0.46185
4.02802133333333,0.46713
4.02882133333333,0.47226
4.02962133333333,0.47723
4.03042133333333,0.48205
4.03122133333333,0.48671
4.03202133333333,0.49121
4.03282133333333,0.49555
4.03362133333333,0.49973
4.03442133333333,0.50375
4.03522133333333,0.5076
4.03602133333333,0.5113
4.03682133333333,0.51483
4.03762133333333,0.51819
4.03842133333333,0.52139
4.03922133333333,0.52441
4.04002133333333,0.52727
4.04082133333333,0.52995
4.04162133333333,0.53244
4.04242133333333,0.53476
4.04322133333333,0.53689
4.04402133333333,0.53884
4.04482133333333,0.54059
4.04562133333333,0.54215
4.04642133333333,0.54352
4.04722133333333,0.5447
4.04802133333333,0.54568
4.04882133333333,0.54646
4.04962133333333,0.54704
4.05042133333333,0.54743
4.05122133333333,0.54762
4.05202133333333,0.5476
4.05282133333333,0.54738
4.05362133333333,0.54697
4.05442133333333,0.54634
4.05522133333333,0.54552
4.05602133333333,0.54449
4.05682133333333,0.54325
4.05762133333333,0.54181
4.05842133333333,0.54016
4.05922133333333,0.5383
4.06002133333333,0.53625
4.06082133333333,0.53398
4.06162133333333,0.53152
4.06242133333333,0.52885
4.06322133333333,0.52599
4.06402133333333,0.52292
4.06482133333333,0.51967
4.06562133333333,0.51622
4.06642133333333,0.51259
4.06722133333333,0.50878
4.06802133333333,0.5048
4.06882133333333,0.50063
4.06962133333333,0.49631
4.07042133333333,0.49181
4.07122133333333,0.48716
4.07202133333333,0.48235
4.07282133333333,0.47738
4.07362133333333,0.47227
4.07442133333333,0.467
4.07522133333333,0.46159
4.07602133333333,0.45603
4.07682133333333,0.45034
4.07762133333333,0.4445
4.07842133333333,0.43852
4.07922133333333,0.43241
4.08002133333333,0.42617
4.08082133333333,0.4198
4.08162133333333,0.4133
4.08242133333333,0.40667
4.08322133333333,0.39992
4.08402133333333,0.39305
4.08482133333333,0.38606
4.08562133333333,0.37895
4.08642133333333,0.37173
4.08722133333333,0.3644
4.08802133333333,0.35695
4.08882133333333,0.3494
4.08962133333333,0.34175
4.09042133333333,0.33399
4.09122133333333,0.32614
4.09202133333333,0.31819
4.09282133333333,0.31015
4.09362133333333,0.30201
4.09442133333333,0.29378
4.09522133333333,0.28547
4.09602133333333,0.27706
4.09682133333333,0.26857
4.09762133333333,0.25999
4.09842133333333,0.25133
4.09922133333333,0.24259
4.10002133333333,0.23376
4.10082133333333,0.22484
4.10162133333333,0.21584
4.10242133333333,0.20676
4.10322133333333,0.1976
4.10402133333333,0.18835
4.10482133333333,0.17902
4.10562133333333,0.16962
4.10642133333333,0.16014
4.10722133333333,0.15058
4.10802133333333,0.14096
4.10882133333333,0.13126
4.10962133333333,0.1215
4.11042133333333,0.11167
4.11122133333333,0.10178
4.11202133333333,0.09182
4.11282133333333,0.08181
4.11362133333333,0.07174
4.11442133333333,0.06162
4.11522133333333,0.05144
4.11602133333333,0.04121
4.11682133333333,0.03092
4.11762133333333,0.02059
4.11842133333333,0.0102
4.11922133333333,-0.00024
4.12002133333333,-0.01073
4.12082133333333,-0.02127
4.12162133333333,-0.03186
4.12242133333333,-0.0425
4.12322133333333,-0.05318
4.12402133333333,-0.0639
4.12482133333333,-0.07468
4.12562133333333,-0.08549
4.12642133333333,-0.09635
4.12722133333333,-0.10725
4.12802133333333,-0.11819
4.12882133333333,-0.12917
4.12962133333333,-0.14019
4.13042133333333,-0.15124
4.13122133333333,-0.16233
4.13202133333333,-0.17345
4.13282133333333,-0.1846
4.13362133333333,-0.19577
4.13442133333333,-0.20698
4.13522133333333,-0.2182
4.13602133333333,-0.22945
4.13682133333333,-0.24071
4.13762133333333,-0.252
4.13842133333333,-0.26329
4.13922133333333,-0.27459
4.14002133333333,-0.28591
4.14082133333333,-0.29722
4.14162133333333,-0.30854
4.14242133333333,-0.31986
4.14322133333333,-0.33117
4.14402133333333,-0.34248
4.14482133333333,-0.35379
4.14562133333333,-0.36509
4.14642133333333,-0.37637
4.14722133333333,-0.38765
4.14802133333333,-0.39892
4.14882133333333,-0.41017
4.14962133333333,-0.4214
4.15042133333333,-0.43262
4.15122133333333,-0.44383
4.15202133333333,-0.45501
4.15282133333333,-0.46618
4.15362133333333,-0.47732
4.15442133333333,-0.48845
4.15522133333333,-0.49955
4.15602133333333,-0.51063
4.15682133333333,-0.52169
4.15762133333333,-0.53273
4.15842133333333,-0.54375
4.15922133333333,-0.55473
4.16002133333333,-0.56569
4.16082133333333,-0.57662
4.16162133333333,-0.58752
4.16242133333333,-0.59839
4.16322133333333,-0.60923
4.16402133333333,-0.62004
4.16482133333333,-0.63081
4.16562133333333,-0.64155
4.16642133333333,-0.65226
4.16722133333333,-0.66293
4.16802133333333,-0.67357
4.16882133333333,-0.68417
4.16962133333333,-0.69473
4.17042133333333,-0.70526
4.17122133333333,-0.71575
4.17202133333333,-0.7262
4.17282133333333,-0.73661
4.17362133333333,-0.74698
4.17442133333333,-0.75731
4.17522133333333,-0.76759
4.17602133333333,-0.77784
4.17682133333333,-0.78803
4.17762133333333,-0.79818
4.17842133333333,-0.80828
4.17922133333333,-0.81834
4.18002133333333,-0.82834
4.18082133333333,-0.8383
4.18162133333333,-0.84821
4.18242133333333,-0.85807
4.18322133333333,-0.86788
4.18402133333333,-0.87765
4.18482133333333,-0.88737
4.18562133333333,-0.89705
4.18642133333333,-0.90669
4.18722133333333,-0.91629
4.18802133333333,-0.92585
4.18882133333333,-0.93537
4.18962133333333,-0.94485
4.19042133333333,-0.95429
4.19122133333333,-0.9637
4.19202133333333,-0.97307
4.19282133333333,-0.98239
4.19362133333333,-0.99168
4.19442133333333,-1.00093
4.19522133333333,-1.01014
4.19602133333333,-1.0193
4.19682133333333,-1.02842
4.19762133333333,-1.03749
4.19842133333333,-1.0465
4.19922133333333,-1.05547
4.20002133333333,-1.06437
4.20082133333333,-1.07322
4.20162133333333,-1.082
4.20242133333333,-1.09073
4.20322133333333,-1.09938
4.20402133333333,-1.10797
4.20482133333333,-1.11649
4.20562133333333,-1.12493
4.20642133333333,-1.13331
4.20722133333333,-1.14161
4.20802133333333,-1.14984
4.20882133333333,-1.15799
4.20962133333333,-1.16606
4.21042133333333,-1.17406
4.21122133333333,-1.18199
4.21202133333333,-1.18983
4.21282133333333,-1.1976
4.21362133333333,-1.2053
4.21442133333333,-1.21293
4.21522133333333,-1.22048
4.21602133333333,-1.22797
4.21682133333333,-1.23539
4.21762133333333,-1.24275
4.21842133333333,-1.25005
4.21922133333333,-1.25729
4.22002133333333,-1.26448
4.22082133333333,-1.27161
4.22162133333333,-1.27869
4.22242133333333,-1.28573
4.22322133333333,-1.29273
4.22402133333333,-1.29968
4.22482133333333,-1.3066
4.22562133333333,-1.31348
4.22642133333333,-1.32033
4.22722133333333,-1.32714
4.22802133333333,-1.33393
4.22882133333333,-1.34069
4.22962133333333,-1.34741
4.23042133333333,-1.35411
4.23122133333333,-1.36078
4.23202133333333,-1.36741
4.23282133333333,-1.37402
4.23362133333333,-1.38059
4.23442133333333,-1.38712
4.23522133333333,-1.39362
4.23602133333333,-1.40008
4.23682133333333,-1.4065
4.23762133333333,-1.41289
4.23842133333333,-1.41923
4.23922133333333,-1.42553
4.24002133333333,-1.43178
4.24082133333333,-1.43799
4.24162133333333,-1.44416
4.24242133333333,-1.45027
4.24322133333333,-1.45633
4.24402133333333,-1.46234
4.24482133333333,-1.46829
4.24562133333333,-1.47418
4.24642133333333,-1.48001
4.24722133333333,-1.48577
4.24802133333333,-1.49146
4.24882133333333,-1.49708
4.24962133333333,-1.50263
4.25042133333333,-1.5081
4.25122133333333,-1.5135
4.25202133333333,-1.51881
4.25282133333333,-1.52405
4.25362133333333,-1.52919
4.25442133333333,-1.53425
4.25522133333333,-1.53922
4.25602133333333,-1.5441
4.25682133333333,-1.54888
4.25762133333333,-1.55357
4.25842133333333,-1.55816
4.25922133333333,-1.56266
4.26002133333333,-1.56707
4.26082133333333,-1.57138
4.26162133333333,-1.5756
4.26242133333333,-1.57972
4.26322133333333,-1.58375
4.26402133333333,-1.58769
4.26482133333333,-1.59154
4.26562133333333,-1.5953
4.26642133333333,-1.59898
4.26722133333333,-1.60256
4.26802133333333,-1.60605
4.26882133333333,-1.60946
4.26962133333333,-1.61277
4.27042133333333,-1.616
4.27122133333333,-1.61914
4.27202133333333,-1.6222
4.27282133333333,-1.62517
4.27362133333333,-1.62806
4.27442133333333,-1.63087
4.27522133333333,-1.63361
4.27602133333333,-1.63627
4.27682133333333,-1.63885
4.27762133333333,-1.64137
4.27842133333333,-1.64383
4.27922133333333,-1.64622
4.28002133333333,-1.64856
4.28082133333333,-1.65085
4.28162133333333,-1.65309
4.28242133333333,-1.65528
4.28322133333333,-1.65744
4.28402133333333,-1.65955
4.28482133333333,-1.66164
4.28562133333333,-1.6637
4.28642133333333,-1.66573
4.28722133333333,-1.66775
4.28802133333333,-1.66975
4.28882133333333,-1.67175
4.28962133333333,-1.67374
4.29042133333333,-1.67573
4.29122133333333,-1.67772
4.29202133333333,-1.67972
4.29282133333333,-1.68173
4.29362133333333,-1.68376
4.29442133333333,-1.68581
4.29522133333333,-1.68788
4.29602133333333,-1.68998
4.29682133333333,-1.6921
4.29762133333333,-1.69426
4.29842133333333,-1.69645
4.29922133333333,-1.69868
4.30002133333333,-1.70095
4.30082133333333,-1.70326
4.30162133333333,-1.70562
4.30242133333333,-1.70803
4.30322133333333,-1.71051
4.30402133333333,-1.71304
4.30482133333333,-1.71565
4.30562133333333,-1.71832
4.30642133333333,-1.72108
4.30722133333333,-1.72393
4.30802133333333,-1.72686
4.30882133333333,-1.72989
4.30962133333333,-1.73302
4.31042133333333,-1.73626
4.31122133333333,-1.73959
4.31202133333333,-1.74305
4.31282133333333,-1.74661
4.31362133333333,-1.75029
4.31442133333333,-1.75409
4.31522133333333,-1.75802
4.31602133333333,-1.76206
4.31682133333333,-1.76624
4.31762133333333,-1.77054
4.31842133333333,-1.77497
4.31922133333333,-1.77952
4.32002133333333,-1.78421
4.32082133333333,-1.78903
4.32162133333333,-1.79398
4.32242133333333,-1.79906
4.32322133333333,-1.80427
4.32402133333333,-1.8096
4.32482133333333,-1.81506
4.32562133333333,-1.82065
4.32642133333333,-1.82636
4.32722133333333,-1.83219
4.32802133333333,-1.83814
4.32882133333333,-1.84421
4.32962133333333,-1.85039
4.33042133333333,-1.85668
4.33122133333333,-1.86308
4.33202133333333,-1.86959
4.33282133333333,-1.87619
4.33362133333333,-1.8829
4.33442133333333,-1.88969
4.33522133333333,-1.89658
4.33602133333333,-1.90356
4.33682133333333,-1.91062
4.33762133333333,-1.91776
4.33842133333333,-1.92498
4.33922133333333,-1.93227
4.34002133333333,-1.93963
4.34082133333333,-1.94706
4.34162133333333,-1.95454
4.34242133333333,-1.96209
4.34322133333333,-1.96968
4.34402133333333,-1.97733
4.34482133333333,-1.98502
4.34562133333333,-1.99276
4.34642133333333,-2.00052
4.34722133333333,-2.00832
4.34802133333333,-2.01613
4.34882133333333,-2.02396
4.34962133333333,-2.0318
4.35042133333333,-2.03965
4.35122133333333,-2.04749
4.35202133333333,-2.05531
4.35282133333333,-2.06312
4.35362133333333,-2.07091
4.35442133333333,-2.07866
4.35522133333333,-2.08637
4.35602133333333,-2.09403
4.35682133333333,-2.10164
4.35762133333333,-2.10919
4.35842133333333,-2.11666
4.35922133333333,-2.12406
4.36002133333333,-2.13137
4.36082133333333,-2.13857
4.36162133333333,-2.14568
4.36242133333333,-2.15266
4.36322133333333,-2.15952
4.36402133333333,-2.16624
4.36482133333333,-2.1728
4.36562133333333,-2.17921
4.36642133333333,-2.18544
4.36722133333333,-2.19149
4.36802133333333,-2.19734
4.36882133333333,-2.20297
4.36962133333333,-2.20838
4.37042133333333,-2.21355
4.37122133333333,-2.21847
4.37202133333333,-2.22311
4.37282133333333,-2.22746
4.37362133333333,-2.2315
4.37442133333333,-2.23522
4.37522133333333,-2.23859
4.37602133333333,-2.2416
4.37682133333333,-2.24422
4.37762133333333,-2.24644
4.37842133333333,-2.24823
4.37922133333333,-2.24958
4.38002133333333,-2.25046
4.38082133333333,-2.25086
4.38162133333333,-2.25075
4.38242133333333,-2.25011
4.38322133333333,-2.24893
4.38402133333333,-2.24717
4.38482133333333,-2.24482
4.38562133333333,-2.24186
4.38642133333333,-2.23827
4.38722133333333,-2.23403
4.38802133333333,-2.22911
4.38882133333333,-2.22349
4.38962133333333,-2.21716
4.39042133333333,-2.21009
4.39122133333333,-2.20226
4.39202133333333,-2.19365
4.39282133333333,-2.18424
4.39362133333333,-2.17402
4.39442133333333,-2.16295
4.39522133333333,-2.15103
4.39602133333333,-2.13823
4.39682133333333,-2.12454
4.39762133333333,-2.10994
4.39842133333333,-2.09441
4.39922133333333,-2.07794
4.40002133333333,-2.06051
4.40082133333333,-2.0421
4.40162133333333,-2.02271
4.40242133333333,-2.00232
4.40322133333333,-1.98092
4.40402133333333,-1.95851
4.40482133333333,-1.93506
4.40562133333333,-1.91058
4.40642133333333,-1.88506
4.40722133333333,-1.85849
4.40802133333333,-1.83087
4.40882133333333,-1.8022
4.40962133333333,-1.77247
4.41042133333333,-1.74169
4.41122133333333,-1.70985
4.41202133333333,-1.67695
4.41282133333333,-1.64301
4.41362133333333,-1.60803
4.41442133333333,-1.57202
4.41522133333333,-1.53498
4.41602133333333,-1.49693
4.41682133333333,-1.45788
4.41762133333333,-1.41785
4.41842133333333,-1.37686
4.41922133333333,-1.33492
4.42002133333333,-1.29205
4.42082133333333,-1.24828
4.42162133333333,-1.20363
4.42242133333333,-1.15813
4.42322133333333,-1.1118
4.42402133333333,-1.06468
4.42482133333333,-1.01679
4.42562133333333,-0.96817
4.42642133333333,-0.91885
4.42722133333333,-0.86886
4.42802133333333,-0.81824
4.42882133333333,-0.76702
4.42962133333333,-0.71525
4.43042133333333,-0.66296
4.43122133333333,-0.61018
4.43202133333333,-0.55696
4.43282133333333,-0.50333
4.43362133333333,-0.44934
4.43442133333333,-0.39503
4.43522133333333,-0.34043
4.43602133333333,-0.28559
4.43682133333333,-0.23054
4.43762133333333,-0.17533
4.43842133333333,-0.12
4.43922133333333,-0.06459
4.44002133333333,-0.00913
4.44082133333333,0.04632
4.44162133333333,0.10173
4.44242133333333,0.15707
4.44322133333333,0.21229
4.44402133333333,0.26735
4.44482133333333,0.32222
4.44562133333333,0.37687
4.44642133333333,0.43125
4.44722133333333,0.48534
4.44802133333333,0.53909
4.44882133333333,0.59248
4.44962133333333,0.64548
4.45042133333333,0.69805
4.45122133333333,0.75016
4.45202133333333,0.80178
4.45282133333333,0.85289
4.45362133333333,0.90346
4.45442133333333,0.95346
4.45522133333333,1.00286
4.45602133333333,1.05165
4.45682133333333,1.09979
4.45762133333333,1.14727
4.45842133333333,1.19407
4.45922133333333,1.24016
4.46002133333333,1.28552
4.46082133333333,1.33014
4.46162133333333,1.37399
4.46242133333333,1.41706
4.46322133333333,1.45932
4.46402133333333,1.50077
4.46482133333333,1.54138
4.46562133333333,1.58114
4.46642133333333,1.62004
4.46722133333333,1.65806
4.46802133333333,1.69518
4.46882133333333,1.73141
4.46962133333333,1.76671
4.47042133333333,1.80109
4.47122133333333,1.83453
4.47202133333333,1.86703
4.47282133333333,1.89858
4.47362133333333,1.92916
4.47442133333333,1.95878
4.47522133333333,1.98743
4.47602133333333,2.0151
4.47682133333333,2.04181
4.47762133333333,2.06753
4.47842133333333,2.09228
4.47922133333333,2.11606
4.48002133333333,2.13887
4.48082133333333,2.16071
4.48162133333333,2.18159
4.48242133333333,2.20151
4.48322133333333,2.22047
4.48402133333333,2.23849
4.48482133333333,2.25557
4.48562133333333,2.27171
4.48642133333333,2.28692
4.48722133333333,2.30122
4.48802133333333,2.31461
4.48882133333333,2.32709
4.48962133333333,2.33869
4.49042133333333,2.3494
4.49122133333333,2.35925
4.49202133333333,2.36825
4.49282133333333,2.37641
4.49362133333333,2.38374
4.49442133333333,2.39026
4.49522133333333,2.39598
4.49602133333333,2.40092
4.49682133333333,2.4051
4.49762133333333,2.40852
4.49842133333333,2.41121
4.49922133333333,2.41318
4.50002133333333,2.41445
4.50082133333333,2.41504
4.50162133333333,2.41495
4.50242133333333,2.41421
4.50322133333333,2.41283
4.50402133333333,2.41082
4.50482133333333,2.4082
4.50562133333333,2.405
4.50642133333333,2.40121
4.50722133333333,2.39686
4.50802133333333,2.39197
4.50882133333333,2.38655
4.50962133333333,2.38062
4.51042133333333,2.37419
4.51122133333333,2.36727
4.51202133333333,2.35989
4.51282133333333,2.35207
4.51362133333333,2.3438
4.51442133333333,2.33512
4.51522133333333,2.32604
4.51602133333333,2.31657
4.51682133333333,2.30673
4.51762133333333,2.29654
4.51842133333333,2.28601
4.51922133333333,2.27516
4.52002133333333,2.26399
4.52082133333333,2.25254
4.52162133333333,2.2408
4.52242133333333,2.22879
4.52322133333333,2.21654
4.52402133333333,2.20404
4.52482133333333,2.19132
4.52562133333333,2.17839
4.52642133333333,2.16526
4.52722133333333,2.15195
4.52802133333333,2.13846
4.52882133333333,2.12482
4.52962133333333,2.11102
4.53042133333333,2.0971
4.53122133333333,2.08305
4.53202133333333,2.06889
4.53282133333333,2.05464
4.53362133333333,2.0403
4.53442133333333,2.02588
4.53522133333333,2.01139
4.53602133333333,1.99685
4.53682133333333,1.98226
4.53762133333333,1.96763
4.53842133333333,1.95296
4.53922133333333,1.93828
4.54002133333333,1.92358
4.54082133333333,1.90887
4.54162133333333,1.89416
4.54242133333333,1.87945
4.54322133333333,1.86474
4.54402133333333,1.85005
4.54482133333333,1.83536
4.54562133333333,1.8207
4.54642133333333,1.80606
4.54722133333333,1.79144
4.54802133333333,1.77685
4.54882133333333,1.7623
4.54962133333333,1.74778
4.55042133333333,1.73329
4.55122133333333,1.71885
4.55202133333333,1.70446
4.55282133333333,1.69011
4.55362133333333,1.67581
4.55442133333333,1.66156
4.55522133333333,1.64736
4.55602133333333,1.63323
4.55682133333333,1.61915
4.55762133333333,1.60514
4.55842133333333,1.59119
4.55922133333333,1.57731
4.56002133333333,1.56349
4.56082133333333,1.54974
4.56162133333333,1.53607
4.56242133333333,1.52246
4.56322133333333,1.50893
4.56402133333333,1.49546
4.56482133333333,1.48207
4.56562133333333,1.46875
4.56642133333333,1.4555
4.56722133333333,1.44232
4.56802133333333,1.42922
4.56882133333333,1.4162
4.56962133333333,1.40325
4.57042133333333,1.39038
4.57122133333333,1.3776
4.57202133333333,1.36489
4.57282133333333,1.35226
4.57362133333333,1.33972
4.57442133333333,1.32727
4.57522133333333,1.3149
4.57602133333333,1.30262
4.57682133333333,1.29043
4.57762133333333,1.27832
4.57842133333333,1.26629
4.57922133333333,1.25436
4.58002133333333,1.2425
4.58082133333333,1.23073
4.58162133333333,1.21905
4.58242133333333,1.20744
4.58322133333333,1.19593
4.58402133333333,1.18449
4.58482133333333,1.17315
4.58562133333333,1.16188
4.58642133333333,1.15071
4.58722133333333,1.13962
4.58802133333333,1.12861
4.58882133333333,1.1177
4.58962133333333,1.10686
4.59042133333333,1.09612
4.59122133333333,1.08545
4.59202133333333,1.07487
4.59282133333333,1.06436
4.59362133333333,1.05393
4.59442133333333,1.04358
4.59522133333333,1.0333
4.59602133333333,1.02309
4.59682133333333,1.01296
4.59762133333333,1.00289
4.59842133333333,0.99288
4.59922133333333,0.98294
4.60002133333333,0.97305
4.60082133333333,0.96321
4.60162133333333,0.95343
4.60242133333333,0.9437
4.60322133333333,0.934
4.60402133333333,0.92434
4.60482133333333,0.91472
4.60562133333333,0.90513
4.60642133333333,0.89555
4.60722133333333,0.886
4.60802133333333,0.87646
4.60882133333333,0.86694
4.60962133333333,0.85742
4.61042133333333,0.8479
4.61122133333333,0.83838
4.61202133333333,0.82885
4.61282133333333,0.81931
4.61362133333333,0.80975
4.61442133333333,0.80017
4.61522133333333,0.79057
4.61602133333333,0.78094
4.61682133333333,0.77127
4.61762133333333,0.76157
4.61842133333333,0.75182
4.61922133333333,0.74203
4.62002133333333,0.73219
4.62082133333333,0.72229
4.62162133333333,0.71234
4.62242133333333,0.70232
4.62322133333333,0.69225
4.62402133333333,0.68212
4.62482133333333,0.67193
4.62562133333333,0.66168
4.62642133333333,0.65137
4.62722133333333,0.64099
4.62802133333333,0.63055
4.62882133333333,0.62006
4.62962133333333,0.6095
4.63042133333333,0.59889
4.63122133333333,0.58823
4.63202133333333,0.57752
4.63282133333333,0.56677
4.63362133333333,0.55597
4.63442133333333,0.54514
4.63522133333333,0.53428
4.63602133333333,0.52339
4.63682133333333,0.51249
4.63762133333333,0.50157
4.63842133333333,0.49065
4.63922133333333,0.47973
4.64002133333333,0.46881
4.64082133333333,0.4579
4.64162133333333,0.44702
4.64242133333333,0.43616
4.64322133333333,0.42534
4.64402133333333,0.41455
4.64482133333333,0.40382
4.64562133333333,0.39314
4.64642133333333,0.38253
4.64722133333333,0.372
4.64802133333333,0.36156
4.64882133333333,0.35121
4.64962133333333,0.34098
4.65042133333333,0.33086
4.65122133333333,0.32087
4.65202133333333,0.31102
4.65282133333333,0.30132
4.65362133333333,0.29178
4.65442133333333,0.28242
4.65522133333333,0.27323
4.65602133333333,0.26424
4.65682133333333,0.25545
4.65762133333333,0.24687
4.65842133333333,0.23852
4.65922133333333,0.2304
4.66002133333333,0.22251
4.66082133333333,0.21487
4.66162133333333,0.20748
4.66242133333333,0.20035
4.66322133333333,0.19349
4.66402133333333,0.18689
4.66482133333333,0.18057
4.66562133333333,0.17453
4.66642133333333,0.16877
4.66722133333333,0.1633
4.66802133333333,0.15811
4.66882133333333,0.15322
4.66962133333333,0.14861
4.67042133333333,0.1443
4.67122133333333,0.14027
4.67202133333333,0.13654
4.67282133333333,0.1331
4.67362133333333,0.12995
4.67442133333333,0.1271
4.67522133333333,0.12452
4.67602133333333,0.12224
4.67682133333333,0.12024
4.67762133333333,0.11852
4.67842133333333,0.11708
4.67922133333333,0.11591
4.68002133333333,0.11502
4.68082133333333,0.1144
4.68162133333333,0.11403
4.68242133333333,0.11393
4.68322133333333,0.11408
4.68402133333333,0.11448
4.68482133333333,0.11512
4.68562133333333,0.116
4.68642133333333,0.11711
4.68722133333333,0.11845
4.68802133333333,0.12001
4.68882133333333,0.12178
4.68962133333333,0.12376
4.69042133333333,0.12595
4.69122133333333,0.12833
4.69202133333333,0.13091
4.69282133333333,0.13367
4.69362133333333,0.13661
4.69442133333333,0.13972
4.69522133333333,0.14301
4.69602133333333,0.14645
4.69682133333333,0.15005
4.69762133333333,0.1538
4.69842133333333,0.15769
4.69922133333333,0.16171
4.70002133333333,0.16587
4.70082133333333,0.17015
4.70162133333333,0.17456
4.70242133333333,0.17909
4.70322133333333,0.18373
4.70402133333333,0.18848
4.70482133333333,0.19333
4.70562133333333,0.19828
4.70642133333333,0.20333
4.70722133333333,0.20847
4.70802133333333,0.2137
4.70882133333333,0.219
4.70962133333333,0.22438
4.71042133333333,0.22982
4.71122133333333,0.23533
4.71202133333333,0.2409
4.71282133333333,0.24653
4.71362133333333,0.25221
4.71442133333333,0.25794
4.71522133333333,0.26372
4.71602133333333,0.26953
4.71682133333333,0.27539
4.71762133333333,0.28127
4.71842133333333,0.28718
4.71922133333333,0.29311
4.72002133333333,0.29906
4.72082133333333,0.30503
4.72162133333333,0.311
4.72242133333333,0.31698
4.72322133333333,0.32297
4.72402133333333,0.32895
4.72482133333333,0.33493
4.72562133333333,0.3409
4.72642133333333,0.34685
4.72722133333333,0.35279
4.72802133333333,0.35871
4.72882133333333,0.3646
4.72962133333333,0.37046
4.73042133333333,0.37629
4.73122133333333,0.38208
4.73202133333333,0.38782
4.73282133333333,0.39352
4.73362133333333,0.39917
4.73442133333333,0.40475
4.73522133333333,0.41028
4.73602133333333,0.41573
4.73682133333333,0.42111
4.73762133333333,0.42641
4.73842133333333,0.43162
4.73922133333333,0.43674
4.74002133333333,0.44176
4.74082133333333,0.44667
4.74162133333333,0.45148
4.74242133333333,0.45617
4.74322133333333,0.46075
4.74402133333333,0.4652
4.74482133333333,0.46953
4.74562133333333,0.47373
4.74642133333333,0.4778
4.74722133333333,0.48174
4.74802133333333,0.48555
4.74882133333333,0.48922
4.74962133333333,0.49275
4.75042133333333,0.49615
4.75122133333333,0.49941
4.75202133333333,0.50253
4.75282133333333,0.50552
4.75362133333333,0.50837
4.75442133333333,0.51109
4.75522133333333,0.51367
4.75602133333333,0.51612
4.75682133333333,0.51844
4.75762133333333,0.52063
4.75842133333333,0.52269
4.75922133333333,0.52463
4.76002133333333,0.52645
4.76082133333333,0.52814
4.76162133333333,0.52972
4.76242133333333,0.53119
4.76322133333333,0.53254
4.76402133333333,0.53377
4.76482133333333,0.5349
4.76562133333333,0.53591
4.76642133333333,0.53682
4.76722133333333,0.53763
4.76802133333333,0.53832
4.76882133333333,0.53892
4.76962133333333,0.53941
4.77042133333333,0.5398
4.77122133333333,0.54009
4.77202133333333,0.54028
4.77282133333333,0.54037
4.77362133333333,0.54036
4.77442133333333,0.54026
4.77522133333333,0.54005
4.77602133333333,0.53974
4.77682133333333,0.53933
4.77762133333333,0.53883
4.77842133333333,0.53822
4.77922133333333,0.53751
4.78002133333333,0.5367
4.78082133333333,0.53578
4.78162133333333,0.53475
4.78242133333333,0.53361
4.78322133333333,0.53236
4.78402133333333,0.53099
4.78482133333333,0.5295
4.78562133333333,0.52789
4.78642133333333,0.52614
4.78722133333333,0.52427
4.78802133333333,0.52225
4.78882133333333,0.5201
4.78962133333333,0.5178
4.79042133333333,0.51534
4.79122133333333,0.51274
4.79202133333333,0.50998
4.79282133333333,0.50705
4.79362133333333,0.50397
4.79442133333333,0.50071
4.79522133333333,0.49729
